Date,Low,Open,Volume,High,Close,Adjusted Close
04-10-1989,2.4375,2.46875,20636000,2.546875,2.5,1.7905131578445435
05-10-1989,2.5,2.515625,6453600,2.625,2.578125,1.8464679718017578
06-10-1989,2.546875,2.59375,2755200,2.625,2.546875,1.8240866661071777
09-10-1989,2.5,2.546875,1084000,2.546875,2.546875,1.8240866661071777
10-10-1989,2.5,2.5625,1493600,2.5625,2.53125,1.8128958940505981
11-10-1989,2.46875,2.5,1260000,2.515625,2.515625,1.801705002784729
12-10-1989,2.515625,2.515625,602400,2.546875,2.53125,1.8128958940505981
13-10-1989,2.46875,2.53125,3970400,2.53125,2.484375,1.7793240547180176
16-10-1989,2.375,2.375,3924800,2.46875,2.46875,1.7681323289871216
17-10-1989,2.4375,2.4375,1843200,2.5,2.5,1.7905131578445435
18-10-1989,2.484375,2.5,1128000,2.5625,2.546875,1.8240866661071777
19-10-1989,2.53125,2.53125,1040000,2.546875,2.546875,1.8240866661071777
20-10-1989,2.515625,2.53125,237600,2.53125,2.53125,1.8128958940505981
23-10-1989,2.546875,2.546875,87200,2.5625,2.546875,1.8240866661071777
24-10-1989,2.53125,2.546875,689600,2.5625,2.5625,1.8352763652801514
25-10-1989,2.515625,2.546875,608000,2.578125,2.546875,1.8240866661071777
26-10-1989,2.546875,2.546875,228800,2.5625,2.546875,1.8240866661071777
27-10-1989,2.5,2.546875,456000,2.546875,2.515625,1.801705002784729
30-10-1989,2.5,2.515625,250400,2.515625,2.5,1.7905131578445435
31-10-1989,2.5,2.5,424800,2.515625,2.5,1.7905131578445435
01-11-1989,2.515625,2.515625,715200,2.5625,2.5625,1.8352763652801514
02-11-1989,2.59375,2.59375,130400,2.640625,2.640625,1.8912304639816284
03-11-1989,2.625,2.625,1118400,2.75,2.734375,1.9583746194839478
06-11-1989,2.578125,2.71875,264800,2.71875,2.578125,1.8464679718017578
07-11-1989,2.5,2.546875,727200,2.6875,2.6875,1.924802303314209
08-11-1989,2.671875,2.6875,236800,2.71875,2.71875,1.9471834897994995
09-11-1989,2.6875,2.71875,60800,2.71875,2.6875,1.924802303314209
10-11-1989,2.546875,2.6875,210400,2.6875,2.5625,1.8352763652801514
13-11-1989,2.515625,2.5625,92800,2.5625,2.546875,1.8240866661071777
14-11-1989,2.484375,2.578125,428000,2.578125,2.53125,1.8128958940505981
15-11-1989,2.53125,2.546875,176000,2.578125,2.5625,1.8352763652801514
16-11-1989,2.546875,2.546875,301600,2.59375,2.59375,1.857658863067627
17-11-1989,2.59375,2.59375,249600,2.640625,2.640625,1.8912304639816284
20-11-1989,2.609375,2.65625,43200,2.65625,2.609375,1.8688504695892334
21-11-1989,2.59375,2.59375,108800,2.671875,2.671875,1.9136121273040771
22-11-1989,2.6875,2.6875,255200,2.75,2.75,1.9695649147033691
24-11-1989,2.78125,2.78125,572000,2.953125,2.921875,2.092663049697876
27-11-1989,2.859375,2.90625,253600,2.9375,2.875,2.059091329574585
28-11-1989,2.828125,2.875,560000,2.875,2.828125,2.025517702102661
29-11-1989,2.78125,2.8125,60800,2.8125,2.796875,2.0031371116638184
30-11-1989,2.8125,2.8125,712800,2.90625,2.890625,2.070281505584717
01-12-1989,2.890625,2.890625,356800,2.953125,2.90625,2.081472635269165
04-12-1989,2.875,2.9375,172000,2.984375,2.984375,2.1374263763427734
05-12-1989,2.90625,2.953125,93600,2.984375,2.90625,2.081472635269165
06-12-1989,2.90625,2.90625,668800,3.0,2.984375,2.1374263763427734
07-12-1989,2.921875,2.984375,215200,2.984375,2.953125,2.1150450706481934
08-12-1989,2.921875,2.921875,122400,2.953125,2.953125,2.1150450706481934
11-12-1989,2.9375,2.96875,306400,3.03125,3.0,2.1486175060272217
12-12-1989,2.984375,3.015625,1119200,3.03125,3.015625,2.1598079204559326
13-12-1989,2.984375,3.0,400000,3.15625,3.15625,2.2605245113372803
14-12-1989,3.109375,3.125,391200,3.140625,3.125,2.238142490386963
15-12-1989,3.09375,3.140625,155200,3.140625,3.109375,2.2269513607025146
18-12-1989,3.03125,3.078125,224000,3.125,3.03125,2.1709983348846436
19-12-1989,3.03125,3.03125,215200,3.0625,3.0625,2.1933789253234863
20-12-1989,3.046875,3.0625,166400,3.109375,3.078125,2.2045700550079346
21-12-1989,3.0625,3.109375,174400,3.125,3.109375,2.2269513607025146
22-12-1989,3.109375,3.125,173600,3.125,3.125,2.238142490386963
26-12-1989,3.078125,3.109375,97600,3.109375,3.078125,2.2045700550079346
27-12-1989,3.03125,3.0625,144000,3.0625,3.03125,2.1709983348846436
28-12-1989,3.03125,3.046875,11200,3.046875,3.03125,2.1709983348846436
29-12-1989,3.015625,3.03125,219200,3.15625,3.15625,2.2605245113372803
02-01-1990,3.03125,3.125,194400,3.125,3.046875,2.1821887493133545
03-01-1990,3.03125,3.0625,361600,3.0625,3.03125,2.1709983348846436
04-01-1990,2.953125,3.03125,166400,3.0625,2.953125,2.1150450706481934
05-01-1990,2.859375,2.9375,100800,2.9375,2.90625,2.081472635269165
08-01-1990,2.84375,2.875,880800,2.890625,2.859375,2.0478999614715576
09-01-1990,2.8125,2.828125,282400,2.84375,2.8125,2.014328718185425
10-01-1990,2.6875,2.765625,784000,2.765625,2.703125,1.9403046369552612
11-01-1990,2.703125,2.71875,347200,2.765625,2.75,1.973951816558838
12-01-1990,2.6875,2.71875,159200,2.734375,2.71875,1.9515208005905151
15-01-1990,2.71875,2.734375,25600,2.734375,2.71875,1.9515208005905151
16-01-1990,2.625,2.6875,172800,2.703125,2.703125,1.9403046369552612
17-01-1990,2.71875,2.71875,216000,2.8125,2.71875,1.9515208005905151
18-01-1990,2.6875,2.6875,157600,2.71875,2.703125,1.9403046369552612
19-01-1990,2.734375,2.734375,8800,2.75,2.75,1.973951816558838
22-01-1990,2.71875,2.734375,56800,2.75,2.734375,1.962735652923584
23-01-1990,2.734375,2.765625,101600,2.765625,2.75,1.973951816558838
24-01-1990,2.6875,2.734375,26400,2.734375,2.6875,1.9290889501571655
25-01-1990,2.671875,2.6875,249600,2.71875,2.71875,1.9515208005905151
26-01-1990,2.671875,2.703125,45600,2.71875,2.671875,1.9178736209869385
29-01-1990,2.625,2.6875,444000,2.6875,2.640625,1.8954414129257202
30-01-1990,2.578125,2.625,548000,2.65625,2.65625,1.9066587686538696
31-01-1990,2.6875,2.6875,757600,2.859375,2.859375,2.052461862564087
01-02-1990,2.84375,2.875,149600,2.875,2.859375,2.052461862564087
02-02-1990,2.875,2.875,720000,2.90625,2.875,2.0636775493621826
05-02-1990,2.875,2.90625,163200,2.90625,2.875,2.0636775493621826
06-02-1990,2.84375,2.875,99200,2.90625,2.890625,2.074892520904541
07-02-1990,2.90625,2.90625,32800,2.9375,2.9375,2.10853910446167
08-02-1990,2.96875,2.96875,346400,3.125,3.046875,2.187049627304077
09-02-1990,2.96875,3.078125,179200,3.125,3.0,2.1534030437469482
12-02-1990,2.90625,3.0,28000,3.0,2.90625,2.0861079692840576
13-02-1990,2.9375,2.9375,26400,2.953125,2.953125,2.1197550296783447
14-02-1990,2.9375,2.953125,32800,2.96875,2.9375,2.10853910446167
15-02-1990,2.953125,2.953125,152000,2.96875,2.953125,2.1197550296783447
16-02-1990,2.96875,2.96875,32000,2.96875,2.96875,2.130971670150757
20-02-1990,2.953125,2.984375,23200,2.984375,2.953125,2.1197550296783447
21-02-1990,2.90625,2.953125,553600,2.953125,2.90625,2.0861079692840576
22-02-1990,2.84375,2.90625,148000,2.90625,2.84375,2.0412464141845703
23-02-1990,2.6875,2.78125,575200,2.78125,2.71875,1.9515208005905151
26-02-1990,2.734375,2.734375,477600,2.75,2.75,1.973951816558838
27-02-1990,2.765625,2.765625,357600,2.84375,2.84375,2.0412464141845703
28-02-1990,2.796875,2.8125,145600,2.828125,2.796875,2.007599115371704
01-03-1990,2.75,2.796875,225600,2.796875,2.75,1.973951816558838
02-03-1990,2.6875,2.75,931200,2.78125,2.703125,1.9403046369552612
05-03-1990,2.65625,2.671875,146400,2.703125,2.671875,1.9178736209869385
06-03-1990,2.625,2.671875,258400,2.734375,2.734375,1.962735652923584
07-03-1990,2.703125,2.734375,174400,2.75,2.75,1.973951816558838
08-03-1990,2.734375,2.75,146400,2.796875,2.78125,1.9963834285736084
09-03-1990,2.734375,2.75,194400,2.78125,2.734375,1.962735652923584
12-03-1990,2.625,2.703125,1072800,2.71875,2.6875,1.9290889501571655
13-03-1990,2.671875,2.671875,662400,2.6875,2.6875,1.9290889501571655
14-03-1990,2.671875,2.671875,298400,2.765625,2.765625,1.98516845703125
15-03-1990,2.71875,2.78125,192000,2.796875,2.71875,1.9515208005905151
16-03-1990,2.734375,2.75,271200,2.78125,2.78125,1.9963834285736084
19-03-1990,2.75,2.75,476000,2.765625,2.765625,1.98516845703125
20-03-1990,2.75,2.75,898400,2.90625,2.796875,2.007599115371704
21-03-1990,2.796875,2.796875,102400,2.8125,2.796875,2.007599115371704
22-03-1990,2.75,2.75,177600,2.765625,2.765625,1.98516845703125
23-03-1990,2.796875,2.796875,320000,2.796875,2.796875,2.007599115371704
26-03-1990,2.75,2.78125,37600,2.78125,2.75,1.973951816558838
27-03-1990,2.734375,2.734375,24000,2.75,2.75,1.973951816558838
28-03-1990,2.84375,2.84375,706400,2.9375,2.921875,2.0973246097564697
29-03-1990,2.890625,2.921875,361600,2.9375,2.90625,2.0861079692840576
30-03-1990,2.921875,2.921875,161600,2.921875,2.921875,2.0973246097564697
02-04-1990,2.84375,2.921875,184800,2.921875,2.875,2.0636775493621826
03-04-1990,2.875,2.875,358400,3.03125,2.984375,2.1421866416931152
04-04-1990,2.90625,2.984375,364800,2.984375,2.90625,2.0861079692840576
05-04-1990,2.90625,2.9375,373600,2.953125,2.90625,2.0861079692840576
06-04-1990,2.78125,2.921875,810400,2.921875,2.78125,1.9963834285736084
09-04-1990,2.734375,2.734375,336800,2.765625,2.734375,1.9671565294265747
10-04-1990,2.71875,2.75,426400,2.8125,2.765625,1.9896386861801147
11-04-1990,2.71875,2.78125,234400,2.8125,2.734375,1.9671565294265747
12-04-1990,2.59375,2.71875,456000,2.734375,2.625,1.8884706497192383
16-04-1990,2.640625,2.640625,273600,2.734375,2.703125,1.9446749687194824
17-04-1990,2.703125,2.71875,16800,2.71875,2.71875,1.955915093421936
18-04-1990,2.6875,2.6875,333600,2.75,2.71875,1.955915093421936
19-04-1990,2.671875,2.71875,207200,2.71875,2.6875,1.933434009552002
20-04-1990,2.65625,2.671875,168800,2.6875,2.671875,1.9221930503845215
23-04-1990,2.625,2.65625,173600,2.65625,2.625,1.8884706497192383
24-04-1990,2.625,2.625,458400,2.671875,2.625,1.8884706497192383
25-04-1990,2.640625,2.65625,104000,2.671875,2.65625,1.9109525680541992
26-04-1990,2.625,2.625,461600,2.6875,2.6875,1.933434009552002
27-04-1990,2.6875,2.6875,133600,2.703125,2.703125,1.9446749687194824
30-04-1990,2.6875,2.703125,68800,2.71875,2.71875,1.955915093421936
01-05-1990,2.6875,2.71875,732800,2.828125,2.8125,2.0233609676361084
02-05-1990,2.765625,2.78125,575200,2.828125,2.8125,2.0233609676361084
03-05-1990,2.828125,2.84375,105600,2.859375,2.828125,2.0346016883850098
04-05-1990,2.78125,2.84375,279200,2.84375,2.78125,2.0008797645568848
07-05-1990,2.78125,2.78125,32800,2.84375,2.84375,2.045844554901123
08-05-1990,2.828125,2.84375,48800,2.84375,2.828125,2.0346016883850098
09-05-1990,2.796875,2.84375,1232800,2.859375,2.796875,2.012120246887207
10-05-1990,2.796875,2.8125,428000,2.84375,2.796875,2.012120246887207
11-05-1990,2.828125,2.828125,172000,2.875,2.875,2.0683252811431885
14-05-1990,2.75,2.890625,2418400,2.890625,2.75,1.9783976078033447
15-05-1990,2.75,2.78125,5804800,2.828125,2.8125,2.0233609676361084
16-05-1990,2.8125,2.8125,367200,2.96875,2.90625,2.0908069610595703
17-05-1990,2.921875,2.921875,196000,2.953125,2.953125,2.124530553817749
18-05-1990,2.96875,2.96875,181600,3.0,3.0,2.1582515239715576
21-05-1990,2.921875,2.96875,74400,2.96875,2.953125,2.124530553817749
22-05-1990,2.96875,2.984375,40800,2.984375,2.96875,2.135769844055176
23-05-1990,2.90625,2.96875,30400,2.96875,2.90625,2.0908069610595703
24-05-1990,2.75,2.921875,483200,2.921875,2.8125,2.0233609676361084
25-05-1990,2.75,2.8125,817600,2.875,2.875,2.0683252811431885
29-05-1990,2.890625,2.890625,60800,2.90625,2.90625,2.0908069610595703
30-05-1990,2.921875,2.9375,129600,2.984375,2.96875,2.135769844055176
31-05-1990,2.90625,2.9375,143200,2.984375,2.96875,2.135769844055176
01-06-1990,2.953125,2.96875,47200,2.984375,2.96875,2.135769844055176
04-06-1990,2.90625,2.9375,68000,2.984375,2.984375,2.1470110416412354
05-06-1990,2.796875,2.984375,1125600,3.0,2.890625,2.079566240310669
06-06-1990,2.875,2.890625,44000,2.90625,2.875,2.0683252811431885
07-06-1990,2.859375,2.890625,212800,2.890625,2.859375,2.05708384513855
08-06-1990,2.8125,2.875,405600,2.875,2.84375,2.045844554901123
11-06-1990,2.84375,2.859375,48800,2.890625,2.875,2.0683252811431885
12-06-1990,2.859375,2.90625,196000,3.0,2.984375,2.1470110416412354
13-06-1990,2.96875,2.96875,208000,3.09375,2.96875,2.135769844055176
14-06-1990,2.9375,2.953125,20800,2.984375,2.984375,2.1470110416412354
15-06-1990,2.921875,2.984375,158400,2.984375,2.96875,2.135769844055176
18-06-1990,2.96875,2.96875,1600,2.96875,2.96875,2.135769844055176
19-06-1990,2.875,2.9375,174400,2.9375,2.921875,2.102048397064209
20-06-1990,2.90625,2.953125,127200,2.953125,2.9375,2.113288640975952
21-06-1990,2.921875,2.921875,6400,2.9375,2.9375,2.113288640975952
22-06-1990,2.921875,2.9375,356800,2.953125,2.953125,2.124530553817749
25-06-1990,2.90625,2.921875,24800,2.9375,2.921875,2.102048397064209
26-06-1990,2.859375,2.90625,207200,2.921875,2.921875,2.102048397064209
27-06-1990,2.921875,2.921875,13600,2.9375,2.921875,2.102048397064209
28-06-1990,2.9375,2.9375,157600,2.96875,2.96875,2.135769844055176
29-06-1990,2.953125,2.984375,327200,2.984375,2.96875,2.135769844055176
02-07-1990,2.875,2.953125,322400,2.953125,2.90625,2.0908069610595703
03-07-1990,2.875,2.9375,308800,2.9375,2.875,2.0683252811431885
05-07-1990,2.8125,2.84375,596800,2.84375,2.828125,2.0346016883850098
06-07-1990,2.78125,2.78125,82400,2.796875,2.796875,2.012120246887207
09-07-1990,2.75,2.796875,724800,2.8125,2.78125,2.0008797645568848
10-07-1990,2.765625,2.78125,1073600,2.78125,2.78125,2.005385637283325
11-07-1990,2.78125,2.78125,776000,2.8125,2.796875,2.0166523456573486
12-07-1990,2.796875,2.796875,1208800,2.90625,2.875,2.0729830265045166
13-07-1990,2.90625,2.90625,568000,3.0,2.96875,2.14057993888855
16-07-1990,2.96875,2.984375,680800,3.0,2.96875,2.14057993888855
17-07-1990,2.921875,2.96875,102400,2.96875,2.921875,2.1067821979522705
18-07-1990,2.84375,2.921875,348000,2.921875,2.84375,2.0504519939422607
19-07-1990,2.796875,2.8125,465600,2.875,2.875,2.0729830265045166
20-07-1990,2.890625,2.890625,51200,2.90625,2.890625,2.0842490196228027
23-07-1990,2.859375,2.875,349600,2.9375,2.9375,2.1180481910705566
24-07-1990,2.90625,2.90625,353600,3.015625,2.984375,2.1518473625183105
25-07-1990,3.0,3.015625,52000,3.03125,3.03125,2.1856465339660645
26-07-1990,3.03125,3.0625,80000,3.0625,3.0625,2.208177328109741
27-07-1990,2.984375,3.03125,75200,3.0625,2.984375,2.1518473625183105
30-07-1990,2.984375,3.0,160800,3.0,3.0,2.1631133556365967
31-07-1990,2.953125,2.953125,175200,3.015625,3.0,2.1631133556365967
01-08-1990,3.0,3.03125,134400,3.0625,3.015625,2.174380302429199
02-08-1990,3.03125,3.125,1056800,3.171875,3.171875,2.2870423793792725
03-08-1990,3.109375,3.15625,1272000,3.265625,3.203125,2.3095736503601074
06-08-1990,3.125,3.25,247200,3.265625,3.125,2.253244161605835
07-08-1990,3.125,3.125,148800,3.140625,3.140625,2.2645089626312256
08-08-1990,3.09375,3.125,170400,3.140625,3.09375,2.230710506439209
09-08-1990,3.0625,3.09375,296000,3.09375,3.09375,2.230710506439209
10-08-1990,3.09375,3.09375,299200,3.109375,3.09375,2.230710506439209
13-08-1990,3.078125,3.109375,56800,3.125,3.078125,2.2194433212280273
14-08-1990,3.0625,3.109375,49600,3.109375,3.0625,2.208177328109741
15-08-1990,3.0625,3.0625,196000,3.15625,3.125,2.253244161605835
16-08-1990,3.078125,3.109375,140000,3.125,3.109375,2.241976022720337
17-08-1990,3.125,3.140625,201600,3.1875,3.140625,2.2645089626312256
20-08-1990,3.046875,3.15625,239200,3.15625,3.046875,2.1969118118286133
21-08-1990,3.0625,3.0625,452000,3.09375,3.078125,2.2194433212280273
22-08-1990,3.015625,3.0625,333600,3.09375,3.015625,2.174380302429199
23-08-1990,2.9375,3.0,364000,3.0,2.96875,2.14057993888855
24-08-1990,2.921875,2.921875,326400,3.0,3.0,2.1631133556365967
27-08-1990,2.953125,3.0,88000,3.0,2.953125,2.1293153762817383
28-08-1990,2.953125,2.953125,8000,2.984375,2.984375,2.1518473625183105
29-08-1990,2.9375,3.015625,140800,3.015625,2.9375,2.1180481910705566
30-08-1990,2.90625,2.953125,65600,2.984375,2.984375,2.1518473625183105
31-08-1990,2.890625,2.953125,256800,2.984375,2.921875,2.1067821979522705
04-09-1990,2.9375,2.9375,20000,2.953125,2.953125,2.1293153762817383
05-09-1990,2.953125,2.953125,223200,3.1875,3.171875,2.2870423793792725
06-09-1990,3.1875,3.203125,317600,3.296875,3.296875,2.3771708011627197
07-09-1990,3.296875,3.296875,160800,3.359375,3.359375,2.422236442565918
10-09-1990,3.328125,3.328125,1408800,3.390625,3.359375,2.422236442565918
11-09-1990,3.1875,3.375,963200,3.375,3.3125,2.3884379863739014
12-09-1990,3.265625,3.34375,336000,3.34375,3.3125,2.3884379863739014
13-09-1990,3.25,3.3125,405600,3.328125,3.25,2.3433732986450195
14-09-1990,3.25,3.25,209600,3.390625,3.390625,2.444767951965332
17-09-1990,3.375,3.390625,1116000,3.46875,3.46875,2.501099109649658
18-09-1990,3.46875,3.46875,776800,3.765625,3.671875,2.6475601196289062
19-09-1990,3.65625,3.6875,1624800,3.6875,3.65625,2.636293411254883
20-09-1990,3.53125,3.65625,432000,3.65625,3.53125,2.5461647510528564
21-09-1990,3.46875,3.484375,521600,3.5625,3.5625,2.5686967372894287
24-09-1990,3.484375,3.5625,112800,3.5625,3.515625,2.5348987579345703
25-09-1990,3.5,3.5,221600,3.515625,3.515625,2.5348987579345703
26-09-1990,3.453125,3.515625,55200,3.515625,3.46875,2.501099109649658
27-09-1990,3.375,3.4375,72800,3.453125,3.375,2.4335031509399414
28-09-1990,3.28125,3.375,163200,3.375,3.34375,2.4109702110290527
01-10-1990,3.296875,3.328125,455200,3.390625,3.34375,2.4109702110290527
02-10-1990,3.328125,3.359375,72000,3.359375,3.359375,2.422236442565918
03-10-1990,3.3125,3.34375,26400,3.34375,3.34375,2.4109702110290527
04-10-1990,3.25,3.34375,313600,3.34375,3.25,2.3433732986450195
05-10-1990,3.1875,3.234375,550400,3.296875,3.1875,2.298306703567505
08-10-1990,3.1875,3.203125,411200,3.234375,3.1875,2.298306703567505
09-10-1990,3.203125,3.203125,298400,3.375,3.34375,2.4157071113586426
10-10-1990,3.21875,3.34375,200000,3.34375,3.234375,2.3366870880126953
11-10-1990,3.203125,3.25,34400,3.25,3.21875,2.3254010677337646
12-10-1990,3.171875,3.1875,89600,3.203125,3.203125,2.3141114711761475
15-10-1990,3.15625,3.203125,36800,3.203125,3.15625,2.280247211456299
16-10-1990,3.109375,3.140625,153600,3.15625,3.109375,2.246380567550659
17-10-1990,3.09375,3.109375,11200,3.125,3.125,2.2576706409454346
18-10-1990,3.109375,3.109375,113600,3.125,3.109375,2.246380567550659
19-10-1990,3.078125,3.109375,36800,3.109375,3.09375,2.235092878341675
22-10-1990,3.0625,3.109375,68000,3.109375,3.0625,2.2125160694122314
23-10-1990,3.0625,3.0625,17600,3.109375,3.109375,2.246380567550659
24-10-1990,3.125,3.125,120000,3.15625,3.15625,2.280247211456299
25-10-1990,3.1875,3.1875,112800,3.328125,3.328125,2.404416799545288
26-10-1990,3.3125,3.3125,22400,3.359375,3.359375,2.426995277404785
29-10-1990,3.359375,3.375,16000,3.375,3.359375,2.426995277404785
30-10-1990,3.28125,3.34375,29600,3.359375,3.296875,2.3818414211273193
31-10-1990,3.3125,3.3125,366400,3.453125,3.375,2.438284158706665
01-11-1990,3.359375,3.375,163200,3.375,3.375,2.438284158706665
02-11-1990,3.375,3.375,469600,3.53125,3.5,2.528589963912964
05-11-1990,3.46875,3.53125,426400,3.546875,3.46875,2.5060129165649414
06-11-1990,3.421875,3.484375,8800,3.484375,3.421875,2.4721484184265137
07-11-1990,3.375,3.421875,148000,3.421875,3.375,2.438284158706665
08-11-1990,3.34375,3.34375,37600,3.390625,3.390625,2.449571371078491
09-11-1990,3.375,3.375,397600,3.4375,3.421875,2.4721484184265137
12-11-1990,3.328125,3.390625,76800,3.390625,3.328125,2.404416799545288
13-11-1990,3.109375,3.15625,208000,3.15625,3.109375,2.246380567550659
14-11-1990,3.109375,3.125,75200,3.1875,3.1875,2.3028228282928467
15-11-1990,3.125,3.15625,45600,3.171875,3.140625,2.2689576148986816
16-11-1990,3.09375,3.140625,300800,3.15625,3.15625,2.280247211456299
19-11-1990,2.984375,3.15625,456800,3.15625,2.984375,2.156074285507202
20-11-1990,2.84375,2.96875,329600,2.96875,2.921875,2.1109213829040527
21-11-1990,2.890625,2.90625,32800,2.96875,2.96875,2.1447854042053223
23-11-1990,2.96875,2.96875,18400,2.984375,2.96875,2.1447854042053223
26-11-1990,2.96875,2.984375,40000,3.0,2.96875,2.1447854042053223
27-11-1990,2.9375,2.984375,39200,2.984375,2.953125,2.133498430252075
28-11-1990,2.90625,2.953125,145600,2.953125,2.921875,2.1109213829040527
29-11-1990,2.90625,2.90625,36800,2.90625,2.90625,2.099634885787964
30-11-1990,2.765625,2.875,236000,2.890625,2.8125,2.0319032669067383
03-12-1990,2.609375,2.796875,366400,2.796875,2.75,1.9867488145828247
04-12-1990,2.671875,2.734375,230400,2.734375,2.71875,1.9641720056533813
05-12-1990,2.71875,2.71875,432000,2.796875,2.78125,2.0093255043029785
06-12-1990,2.734375,2.78125,248800,2.8125,2.75,1.9867488145828247
07-12-1990,2.625,2.71875,257600,2.71875,2.71875,1.9641720056533813
10-12-1990,2.703125,2.734375,179200,2.734375,2.71875,1.9641720056533813
11-12-1990,2.703125,2.703125,981600,2.78125,2.734375,1.9754602909088135
12-12-1990,2.734375,2.75,493600,2.78125,2.78125,2.0093255043029785
13-12-1990,2.71875,2.75,908000,2.75,2.71875,1.9641720056533813
14-12-1990,2.65625,2.71875,207200,2.78125,2.78125,2.0093255043029785
17-12-1990,2.734375,2.796875,89600,2.828125,2.734375,1.9754602909088135
18-12-1990,2.703125,2.765625,153600,2.796875,2.703125,1.9528836011886597
19-12-1990,2.640625,2.703125,277600,2.734375,2.640625,1.9077303409576416
20-12-1990,2.546875,2.609375,1007200,2.609375,2.5625,1.85128915309906
21-12-1990,2.484375,2.484375,980000,2.515625,2.5,1.8061357736587524
24-12-1990,2.5,2.5,222400,2.546875,2.546875,1.8400018215179443
26-12-1990,2.5625,2.5625,93600,2.75,2.75,1.9867488145828247
27-12-1990,2.71875,2.75,51200,2.75,2.734375,1.9754602909088135
28-12-1990,2.65625,2.71875,49600,2.71875,2.65625,1.9190195798873901
31-12-1990,2.53125,2.65625,364800,2.65625,2.65625,1.9190195798873901
02-01-1991,2.59375,2.625,36000,2.625,2.59375,1.8738662004470825
03-01-1991,2.484375,2.59375,413600,2.59375,2.484375,1.794847846031189
04-01-1991,2.328125,2.4375,216800,2.4375,2.328125,1.6819641590118408
07-01-1991,2.21875,2.296875,599200,2.3125,2.265625,1.6368108987808228
08-01-1991,2.15625,2.25,679200,2.265625,2.15625,1.5577926635742188
09-01-1991,2.140625,2.171875,572000,2.1875,2.140625,1.5509995222091675
10-01-1991,2.09375,2.125,296000,2.140625,2.140625,1.5509995222091675
11-01-1991,2.109375,2.109375,278400,2.21875,2.21875,1.6076048612594604
14-01-1991,2.21875,2.234375,172800,2.265625,2.25,1.6302469968795776
15-01-1991,2.171875,2.25,92800,2.25,2.234375,1.6189264059066772
16-01-1991,2.171875,2.234375,50400,2.25,2.203125,1.5962849855422974
17-01-1991,2.03125,2.1875,1341600,2.25,2.203125,1.5962849855422974
18-01-1991,2.15625,2.203125,275200,2.21875,2.1875,1.584963083267212
21-01-1991,2.0625,2.15625,550400,2.15625,2.125,1.5396784543991089
22-01-1991,2.125,2.15625,174400,2.171875,2.125,1.5396784543991089
23-01-1991,2.140625,2.140625,837600,2.265625,2.25,1.6302469968795776
24-01-1991,2.265625,2.3125,495200,2.34375,2.28125,1.6528887748718262
25-01-1991,2.21875,2.3125,817600,2.375,2.25,1.6302469968795776
28-01-1991,2.203125,2.28125,679200,2.296875,2.234375,1.6189264059066772
29-01-1991,2.25,2.25,99200,2.265625,2.25,1.6302469968795776
30-01-1991,2.203125,2.21875,132000,2.25,2.234375,1.6189264059066772
31-01-1991,2.15625,2.21875,384800,2.21875,2.171875,1.5736421346664429
01-02-1991,2.15625,2.15625,869600,2.21875,2.21875,1.6076048612594604
04-02-1991,2.203125,2.21875,961600,2.28125,2.25,1.6302469968795776
05-02-1991,2.25,2.25,1217600,2.375,2.28125,1.6528887748718262
06-02-1991,2.28125,2.28125,1186400,2.5,2.484375,1.8000653982162476
07-02-1991,2.546875,2.546875,1224000,2.78125,2.6875,1.9472395181655884
08-02-1991,2.640625,2.65625,94400,2.6875,2.671875,1.9359190464019775
11-02-1991,2.640625,2.6875,307200,2.75,2.703125,1.9585604667663574
12-02-1991,2.59375,2.734375,216000,2.734375,2.59375,1.8793138265609741
13-02-1991,2.625,2.625,45600,2.703125,2.703125,1.9585604667663574
14-02-1991,2.515625,2.6875,148800,2.6875,2.515625,1.8227070569992065
15-02-1991,2.484375,2.484375,356800,2.609375,2.609375,1.8906359672546387
19-02-1991,2.515625,2.59375,160800,2.59375,2.546875,1.845350742340088
20-02-1991,2.515625,2.546875,219200,2.625,2.625,1.9019569158554077
21-02-1991,2.59375,2.609375,188000,2.625,2.59375,1.8793138265609741
22-02-1991,2.453125,2.59375,408000,2.59375,2.453125,1.7774237394332886
25-02-1991,2.328125,2.453125,88800,2.453125,2.328125,1.6868536472320557
26-02-1991,2.265625,2.3125,776800,2.328125,2.3125,1.6755321025848389
27-02-1991,2.34375,2.34375,1544000,2.453125,2.4375,1.766101598739624
28-02-1991,2.453125,2.46875,578400,2.59375,2.59375,1.8793138265609741
01-03-1991,2.53125,2.59375,692800,2.59375,2.546875,1.845350742340088
04-03-1991,2.546875,2.546875,555200,2.609375,2.59375,1.8793138265609741
05-03-1991,2.5625,2.5625,418400,2.578125,2.578125,1.8679916858673096
06-03-1991,2.546875,2.546875,180800,2.59375,2.5625,1.85667085647583
07-03-1991,2.5625,2.5625,280800,2.625,2.625,1.9019569158554077
08-03-1991,2.59375,2.625,442400,2.78125,2.671875,1.9359190464019775
11-03-1991,2.6875,2.6875,116000,2.75,2.71875,1.9698818922042847
12-03-1991,2.6875,2.75,163200,2.75,2.6875,1.9472395181655884
13-03-1991,2.59375,2.671875,147200,2.671875,2.59375,1.8793138265609741
14-03-1991,2.546875,2.578125,184000,2.59375,2.5625,1.85667085647583
15-03-1991,2.546875,2.546875,289600,2.65625,2.625,1.9019569158554077
18-03-1991,2.625,2.640625,136000,2.6875,2.6875,1.9472395181655884
19-03-1991,2.609375,2.65625,172000,2.65625,2.625,1.9019569158554077
20-03-1991,2.625,2.625,71200,2.65625,2.65625,1.924597978591919
21-03-1991,2.65625,2.671875,327200,2.734375,2.734375,1.9812029600143433
22-03-1991,2.703125,2.734375,93600,2.734375,2.703125,1.9585604667663574
25-03-1991,2.640625,2.71875,115200,2.71875,2.703125,1.9585604667663574
26-03-1991,2.625,2.671875,447200,2.6875,2.65625,1.924597978591919
27-03-1991,2.578125,2.640625,86400,2.640625,2.578125,1.8679916858673096
28-03-1991,2.515625,2.578125,70400,2.59375,2.515625,1.8227070569992065
01-04-1991,2.453125,2.53125,128000,2.53125,2.453125,1.7774237394332886
02-04-1991,2.359375,2.46875,367200,2.46875,2.375,1.7208172082901
03-04-1991,2.3125,2.359375,1358400,2.4375,2.3125,1.6755321025848389
04-04-1991,2.34375,2.34375,1049600,2.40625,2.40625,1.7434601783752441
05-04-1991,2.421875,2.421875,73600,2.484375,2.484375,1.8000653982162476
08-04-1991,2.4375,2.46875,24000,2.46875,2.4375,1.766101598739624
09-04-1991,2.375,2.40625,198400,2.4375,2.4375,1.766101598739624
10-04-1991,2.34375,2.421875,198400,2.421875,2.390625,1.7365919351577759
11-04-1991,2.359375,2.40625,255200,2.4375,2.40625,1.747942566871643
12-04-1991,2.390625,2.40625,398400,2.46875,2.46875,1.7933415174484253
15-04-1991,2.5,2.5,258400,2.5625,2.546875,1.8500940799713135
16-04-1991,2.53125,2.53125,468000,2.640625,2.625,1.9068466424942017
17-04-1991,2.578125,2.640625,662400,2.640625,2.578125,1.8727933168411255
18-04-1991,2.609375,2.609375,68800,2.640625,2.625,1.9068466424942017
19-04-1991,2.5625,2.609375,20000,2.625,2.578125,1.8727933168411255
22-04-1991,2.484375,2.578125,263200,2.578125,2.5,1.8160430192947388
23-04-1991,2.453125,2.484375,69600,2.5,2.5,1.8160430192947388
24-04-1991,2.46875,2.5,44800,2.5,2.5,1.8160430192947388
25-04-1991,2.46875,2.484375,70400,2.484375,2.46875,1.7933415174484253
26-04-1991,2.421875,2.453125,24000,2.453125,2.4375,1.7706422805786133
29-04-1991,2.34375,2.421875,373600,2.421875,2.34375,1.7025400400161743
30-04-1991,2.328125,2.375,1024800,2.375,2.375,1.7252410650253296
01-05-1991,2.34375,2.375,403200,2.421875,2.421875,1.7592912912368774
02-05-1991,2.375,2.40625,714400,2.40625,2.375,1.7252410650253296
03-05-1991,2.359375,2.40625,464000,2.4375,2.390625,1.7365919351577759
06-05-1991,2.359375,2.375,11200,2.375,2.359375,1.7138904333114624
07-05-1991,2.28125,2.375,360800,2.375,2.34375,1.7025400400161743
08-05-1991,2.328125,2.34375,567200,2.453125,2.4375,1.7706422805786133
09-05-1991,2.40625,2.453125,150400,2.46875,2.46875,1.7933415174484253
10-05-1991,2.375,2.453125,88800,2.453125,2.375,1.7252410650253296
13-05-1991,2.28125,2.359375,872000,2.359375,2.28125,1.6571383476257324
14-05-1991,2.28125,2.28125,366400,2.375,2.3125,1.6798394918441772
15-05-1991,2.3125,2.3125,276000,2.40625,2.390625,1.7365919351577759
16-05-1991,2.421875,2.453125,404000,2.46875,2.421875,1.7592912912368774
17-05-1991,2.390625,2.421875,25600,2.421875,2.40625,1.747942566871643
20-05-1991,2.390625,2.40625,121600,2.4375,2.40625,1.747942566871643
21-05-1991,2.34375,2.4375,480800,2.4375,2.375,1.7252410650253296
22-05-1991,2.375,2.375,31200,2.390625,2.390625,1.7365919351577759
23-05-1991,2.375,2.40625,240800,2.421875,2.40625,1.747942566871643
24-05-1991,2.375,2.421875,160800,2.453125,2.390625,1.7365919351577759
28-05-1991,2.375,2.375,60000,2.453125,2.4375,1.7706422805786133
29-05-1991,2.421875,2.4375,334400,2.4375,2.4375,1.7706422805786133
30-05-1991,2.421875,2.4375,521600,2.5,2.5,1.8160430192947388
31-05-1991,2.53125,2.53125,1612000,2.625,2.625,1.9068466424942017
03-06-1991,2.609375,2.65625,256000,2.6875,2.625,1.9068466424942017
04-06-1991,2.625,2.65625,1272800,2.671875,2.625,1.9068466424942017
05-06-1991,2.578125,2.625,141600,2.625,2.578125,1.8727933168411255
06-06-1991,2.5625,2.5625,201600,2.609375,2.59375,1.8841447830200195
07-06-1991,2.53125,2.59375,473600,2.59375,2.53125,1.8387432098388672
10-06-1991,2.53125,2.546875,168000,2.5625,2.53125,1.8387432098388672
11-06-1991,2.4375,2.53125,155200,2.53125,2.5,1.8160430192947388
12-06-1991,2.484375,2.5,51200,2.5,2.5,1.8160430192947388
13-06-1991,2.484375,2.5,1600,2.5,2.484375,1.8046925067901611
14-06-1991,2.46875,2.46875,83200,2.46875,2.46875,1.7933415174484253
17-06-1991,2.453125,2.46875,21600,2.46875,2.453125,1.7819926738739014
18-06-1991,2.4375,2.46875,341600,2.46875,2.46875,1.7933415174484253
19-06-1991,2.46875,2.46875,170400,2.5,2.5,1.8160430192947388
20-06-1991,2.375,2.4375,30400,2.4375,2.375,1.7252410650253296
21-06-1991,2.3125,2.34375,251200,2.375,2.34375,1.7025400400161743
24-06-1991,2.3125,2.359375,124800,2.375,2.375,1.7252410650253296
25-06-1991,2.359375,2.375,39200,2.375,2.359375,1.7138904333114624
26-06-1991,2.296875,2.328125,188000,2.359375,2.3125,1.6798394918441772
27-06-1991,2.28125,2.3125,260800,2.34375,2.3125,1.6798394918441772
28-06-1991,2.25,2.3125,418400,2.3125,2.25,1.634438157081604
01-07-1991,2.203125,2.25,188800,2.25,2.203125,1.6003880500793457
02-07-1991,2.21875,2.21875,127200,2.25,2.234375,1.6230883598327637
03-07-1991,2.203125,2.203125,267200,2.28125,2.25,1.634438157081604
05-07-1991,2.25,2.25,3200,2.25,2.25,1.634438157081604
08-07-1991,2.25,2.25,192800,2.296875,2.296875,1.66848886013031
09-07-1991,2.234375,2.28125,359200,2.3125,2.265625,1.6502796411514282
10-07-1991,2.234375,2.25,56000,2.25,2.234375,1.6275171041488647
11-07-1991,2.25,2.25,152800,2.328125,2.3125,1.6844228506088257
12-07-1991,2.28125,2.34375,1025600,2.359375,2.296875,1.6730413436889648
15-07-1991,2.328125,2.328125,791200,2.375,2.375,1.7299484014511108
16-07-1991,2.34375,2.359375,1204800,2.421875,2.421875,1.7640914916992188
17-07-1991,2.4375,2.453125,1052000,2.59375,2.59375,1.8892855644226074
18-07-1991,2.625,2.625,304800,2.671875,2.671875,1.9461920261383057
19-07-1991,2.609375,2.671875,73600,2.671875,2.625,1.9120492935180664
22-07-1991,2.5625,2.625,72000,2.625,2.59375,1.8892855644226074
23-07-1991,2.578125,2.609375,124000,2.625,2.578125,1.8779034614562988
24-07-1991,2.578125,2.578125,39200,2.59375,2.578125,1.8779034614562988
25-07-1991,2.5625,2.5625,232800,2.578125,2.5625,1.8665229082107544
26-07-1991,2.5625,2.5625,226400,2.59375,2.59375,1.8892855644226074
29-07-1991,2.59375,2.609375,6400,2.609375,2.609375,1.9006670713424683
30-07-1991,2.59375,2.59375,582400,2.65625,2.625,1.9120492935180664
31-07-1991,2.53125,2.5625,698400,2.578125,2.53125,1.843760371208191
01-08-1991,2.53125,2.53125,248800,2.578125,2.5625,1.8665229082107544
02-08-1991,2.546875,2.546875,71200,2.546875,2.546875,1.8551419973373413
05-08-1991,2.546875,2.5625,96800,2.578125,2.5625,1.8665229082107544
06-08-1991,2.5625,2.5625,457600,2.625,2.59375,1.8892855644226074
07-08-1991,2.59375,2.59375,733600,2.625,2.625,1.9120492935180664
08-08-1991,2.625,2.640625,413600,2.6875,2.640625,1.9234281778335571
09-08-1991,2.625,2.625,111200,2.65625,2.65625,1.9348112344741821
12-08-1991,2.640625,2.6875,223200,2.703125,2.65625,1.9348112344741821
13-08-1991,2.640625,2.640625,118400,2.6875,2.6875,1.9575729370117188
14-08-1991,2.671875,2.671875,372000,2.75,2.75,2.0030972957611084
15-08-1991,2.71875,2.75,369600,2.75,2.75,2.0030972957611084
16-08-1991,2.703125,2.734375,490400,2.734375,2.703125,1.9689539670944214
19-08-1991,2.609375,2.671875,91200,2.671875,2.609375,1.9006670713424683
20-08-1991,2.609375,2.609375,22400,2.625,2.625,1.9120492935180664
21-08-1991,2.609375,2.625,78400,2.625,2.625,1.9120492935180664
22-08-1991,2.5625,2.640625,292800,2.640625,2.59375,1.8892855644226074
23-08-1991,2.59375,2.59375,1125600,2.75,2.75,2.0030972957611084
26-08-1991,2.734375,2.75,183200,2.78125,2.75,2.0030972957611084
27-08-1991,2.75,2.75,362400,2.84375,2.8125,2.0486230850219727
28-08-1991,2.828125,2.84375,203200,2.953125,2.9375,2.1396732330322266
29-08-1991,2.921875,2.921875,416800,3.0,2.953125,2.1510541439056396
30-08-1991,2.90625,2.96875,236800,2.96875,2.921875,2.128291368484497
03-09-1991,2.78125,2.890625,230400,2.890625,2.78125,2.025860548019409
04-09-1991,2.75,2.765625,175200,2.8125,2.765625,2.014479637145996
05-09-1991,2.796875,2.796875,309600,2.828125,2.8125,2.0486230850219727
06-09-1991,2.78125,2.8125,55200,2.828125,2.828125,2.0600032806396484
09-09-1991,2.8125,2.8125,8000,2.84375,2.84375,2.0713863372802734
10-09-1991,2.8125,2.828125,452800,2.84375,2.84375,2.0713863372802734
11-09-1991,2.8125,2.828125,145600,2.84375,2.84375,2.0713863372802734
12-09-1991,2.84375,2.859375,48000,2.859375,2.84375,2.0713863372802734
13-09-1991,2.828125,2.875,366400,2.875,2.84375,2.0713863372802734
16-09-1991,2.828125,2.859375,433600,2.859375,2.84375,2.0713863372802734
17-09-1991,2.84375,2.84375,648800,2.890625,2.890625,2.1055288314819336
18-09-1991,2.90625,2.90625,136800,2.9375,2.9375,2.1396732330322266
19-09-1991,2.921875,2.953125,153600,3.03125,3.03125,2.2079598903656006
20-09-1991,3.0,3.078125,312000,3.078125,3.03125,2.2079598903656006
23-09-1991,2.96875,3.0625,113600,3.0625,2.96875,2.162433385848999
24-09-1991,2.875,2.96875,77600,2.96875,2.875,2.0941476821899414
25-09-1991,2.875,2.890625,7200,2.890625,2.875,2.0941476821899414
26-09-1991,2.875,2.90625,296000,2.953125,2.953125,2.1510541439056396
27-09-1991,2.953125,2.96875,70400,3.0,2.96875,2.162433385848999
30-09-1991,2.953125,2.953125,229600,2.984375,2.984375,2.173816442489624
01-10-1991,2.859375,2.984375,1317600,3.0,2.859375,2.0827670097351074
02-10-1991,2.84375,2.84375,740800,2.9375,2.90625,2.116910219192505
03-10-1991,2.890625,2.90625,106400,2.90625,2.890625,2.1055288314819336
04-10-1991,2.859375,2.875,599200,2.890625,2.890625,2.1055288314819336
07-10-1991,2.859375,2.875,973600,2.9375,2.9375,2.1396732330322266
08-10-1991,2.90625,2.9375,735200,2.953125,2.9375,2.1442348957061768
09-10-1991,2.90625,2.9375,43200,2.9375,2.90625,2.1214239597320557
10-10-1991,2.875,2.90625,144000,2.921875,2.90625,2.1214239597320557
11-10-1991,2.90625,2.921875,23200,2.921875,2.921875,2.132829189300537
14-10-1991,2.9375,2.9375,32000,2.984375,2.96875,2.1670453548431396
15-10-1991,2.984375,2.984375,181600,3.015625,3.015625,2.201262950897217
16-10-1991,3.0,3.046875,104000,3.078125,3.0,2.189857006072998
17-10-1991,2.984375,3.0,89600,3.03125,3.03125,2.2126681804656982
18-10-1991,3.0,3.046875,87200,3.046875,3.0,2.189857006072998
21-10-1991,2.984375,2.984375,3200,2.984375,2.984375,2.1784512996673584
22-10-1991,2.875,2.953125,495200,2.953125,2.875,2.0986125469207764
23-10-1991,2.890625,2.953125,95200,2.953125,2.890625,2.1100189685821533
24-10-1991,2.84375,2.875,35200,2.875,2.84375,2.0758020877838135
25-10-1991,2.75,2.8125,277600,2.8125,2.765625,2.0187737941741943
28-10-1991,2.75,2.75,181600,2.84375,2.84375,2.0758020877838135
29-10-1991,2.75,2.859375,404800,2.859375,2.765625,2.0187737941741943
30-10-1991,2.78125,2.78125,12800,2.796875,2.796875,2.0415854454040527
31-10-1991,2.796875,2.8125,37600,2.84375,2.84375,2.0758020877838135
01-11-1991,2.84375,2.859375,62400,2.9375,2.9375,2.1442348957061768
04-11-1991,2.921875,2.921875,624800,3.078125,3.03125,2.2126681804656982
05-11-1991,3.046875,3.046875,421600,3.140625,3.109375,2.26969575881958
06-11-1991,3.03125,3.140625,228000,3.140625,3.03125,2.2126681804656982
07-11-1991,3.0,3.046875,206400,3.046875,3.03125,2.2126681804656982
08-11-1991,3.015625,3.015625,96800,3.0625,3.0625,2.2354776859283447
11-11-1991,3.03125,3.0625,20000,3.0625,3.03125,2.2126681804656982
12-11-1991,3.0,3.0,71200,3.046875,3.03125,2.2126681804656982
13-11-1991,3.03125,3.03125,127200,3.140625,3.125,2.2811007499694824
14-11-1991,3.015625,3.125,102400,3.125,3.03125,2.2126681804656982
15-11-1991,2.890625,3.015625,141600,3.015625,2.9375,2.1442348957061768
18-11-1991,2.875,2.9375,236800,2.9375,2.875,2.0986125469207764
19-11-1991,2.8125,2.890625,143200,2.890625,2.8125,2.0529918670654297
20-11-1991,2.78125,2.796875,144000,2.796875,2.78125,2.030179262161255
21-11-1991,2.78125,2.78125,202400,2.84375,2.796875,2.0415854454040527
22-11-1991,2.75,2.78125,97600,2.78125,2.75,2.007368564605713
25-11-1991,2.75,2.75,16800,2.765625,2.765625,2.0187737941741943
26-11-1991,2.609375,2.75,346400,2.75,2.625,1.9161248207092285
27-11-1991,2.625,2.640625,76800,2.65625,2.625,1.9161248207092285
29-11-1991,2.640625,2.640625,28800,2.65625,2.65625,1.9389359951019287
02-12-1991,2.59375,2.65625,299200,2.671875,2.59375,1.8933141231536865
03-12-1991,2.59375,2.59375,97600,2.65625,2.65625,1.9389359951019287
04-12-1991,2.625,2.65625,20800,2.65625,2.625,1.9161248207092285
05-12-1991,2.625,2.625,96800,2.6875,2.640625,1.9275299310684204
06-12-1991,2.640625,2.640625,858400,2.65625,2.640625,1.9275299310684204
09-12-1991,2.59375,2.625,57600,2.625,2.59375,1.8933141231536865
10-12-1991,2.484375,2.5625,171200,2.5625,2.5,1.8248802423477173
11-12-1991,2.453125,2.515625,415200,2.5625,2.546875,1.8590959310531616
12-12-1991,2.515625,2.515625,124000,2.53125,2.53125,1.8476909399032593
13-12-1991,2.5,2.53125,319200,2.53125,2.5,1.8248802423477173
16-12-1991,2.484375,2.5,372800,2.515625,2.515625,1.8362860679626465
17-12-1991,2.515625,2.515625,683200,2.53125,2.53125,1.8476909399032593
18-12-1991,2.546875,2.546875,112800,2.578125,2.578125,1.8819080591201782
19-12-1991,2.53125,2.5625,392800,2.5625,2.546875,1.8590959310531616
20-12-1991,2.5,2.53125,164800,2.53125,2.515625,1.8362860679626465
23-12-1991,2.421875,2.5,1115200,2.5,2.421875,1.7678531408309937
24-12-1991,2.40625,2.421875,107200,2.515625,2.515625,1.8362860679626465
26-12-1991,2.5,2.5,15200,2.515625,2.5,1.8248802423477173
27-12-1991,2.46875,2.5,48000,2.5,2.46875,1.8020683526992798
30-12-1991,2.421875,2.46875,920800,2.46875,2.4375,1.779258370399475
31-12-1991,2.421875,2.4375,116000,2.484375,2.4375,1.779258370399475
02-01-1992,2.390625,2.421875,732000,2.421875,2.390625,1.7450429201126099
03-01-1992,2.375,2.390625,277600,2.390625,2.375,1.733636736869812
06-01-1992,2.3125,2.390625,528000,2.390625,2.328125,1.6994197368621826
07-01-1992,2.140625,2.3125,584000,2.3125,2.140625,1.5625544786453247
08-01-1992,2.109375,2.125,692800,2.203125,2.125,1.5511481761932373
09-01-1992,2.109375,2.125,348000,2.171875,2.171875,1.5853651762008667
10-01-1992,2.140625,2.15625,840800,2.234375,2.234375,1.6309874057769775
13-01-1992,2.234375,2.234375,456000,2.328125,2.296875,1.6766085624694824
14-01-1992,2.21875,2.296875,281600,2.3125,2.21875,1.6195814609527588
15-01-1992,2.234375,2.234375,377600,2.296875,2.28125,1.6652027368545532
16-01-1992,2.28125,2.28125,80800,2.328125,2.328125,1.6994197368621826
17-01-1992,2.359375,2.359375,47200,2.421875,2.421875,1.7678531408309937
20-01-1992,2.421875,2.421875,91200,2.53125,2.515625,1.8362860679626465
21-01-1992,2.515625,2.53125,578400,2.546875,2.515625,1.8362860679626465
22-01-1992,2.484375,2.515625,300000,2.515625,2.484375,1.8134746551513672
23-01-1992,2.453125,2.46875,313600,2.5,2.453125,1.7906644344329834
24-01-1992,2.3125,2.453125,1104800,2.453125,2.3125,1.6880146265029907
27-01-1992,2.25,2.296875,292800,2.296875,2.265625,1.6537988185882568
28-01-1992,2.1875,2.265625,2736800,2.265625,2.1875,1.5967707633972168
29-01-1992,2.15625,2.203125,463200,2.25,2.203125,1.6081764698028564
30-01-1992,2.140625,2.140625,405600,2.21875,2.1875,1.5967707633972168
31-01-1992,2.1875,2.203125,714400,2.296875,2.25,1.6423919200897217
03-02-1992,2.21875,2.265625,96800,2.265625,2.234375,1.6309874057769775
04-02-1992,2.1875,2.21875,355200,2.234375,2.203125,1.6081764698028564
05-02-1992,2.15625,2.203125,604000,2.203125,2.171875,1.5853651762008667
06-02-1992,2.09375,2.1875,492800,2.1875,2.09375,1.528336763381958
07-02-1992,2.078125,2.078125,704000,2.21875,2.21875,1.6195814609527588
10-02-1992,2.234375,2.234375,782400,2.34375,2.328125,1.6994197368621826
11-02-1992,2.3125,2.328125,241600,2.34375,2.3125,1.6880146265029907
12-02-1992,2.28125,2.3125,446400,2.328125,2.3125,1.6880146265029907
13-02-1992,2.296875,2.3125,161600,2.3125,2.296875,1.6766085624694824
14-02-1992,2.28125,2.296875,190400,2.328125,2.328125,1.6994197368621826
18-02-1992,2.28125,2.3125,504800,2.3125,2.296875,1.6766085624694824
19-02-1992,2.265625,2.28125,20800,2.28125,2.265625,1.6537988185882568
20-02-1992,2.265625,2.265625,260800,2.296875,2.296875,1.6766085624694824
21-02-1992,2.296875,2.296875,311200,2.328125,2.3125,1.6880146265029907
24-02-1992,2.3125,2.328125,249600,2.34375,2.3125,1.6880146265029907
25-02-1992,2.28125,2.3125,144000,2.3125,2.28125,1.6652027368545532
26-02-1992,2.25,2.265625,835200,2.265625,2.265625,1.6537988185882568
27-02-1992,2.25,2.25,67200,2.296875,2.265625,1.6537988185882568
28-02-1992,2.234375,2.234375,321600,2.265625,2.234375,1.6309874057769775
02-03-1992,2.25,2.25,588800,2.296875,2.25,1.6423919200897217
03-03-1992,2.25,2.265625,608800,2.28125,2.25,1.6423919200897217
04-03-1992,2.234375,2.234375,488000,2.25,2.25,1.6423919200897217
05-03-1992,2.265625,2.265625,607200,2.28125,2.28125,1.6652027368545532
06-03-1992,2.28125,2.28125,404800,2.296875,2.28125,1.6652027368545532
09-03-1992,2.28125,2.28125,348000,2.328125,2.328125,1.6994197368621826
10-03-1992,2.328125,2.328125,348000,2.40625,2.390625,1.7450429201126099
11-03-1992,2.390625,2.40625,376000,2.40625,2.40625,1.7564481496810913
12-03-1992,2.40625,2.4375,347200,2.4375,2.40625,1.7564481496810913
13-03-1992,2.421875,2.4375,138400,2.46875,2.46875,1.8020683526992798
16-03-1992,2.40625,2.5,122400,2.5,2.40625,1.7564481496810913
17-03-1992,2.421875,2.4375,569600,2.4375,2.4375,1.779258370399475
18-03-1992,2.40625,2.421875,46400,2.421875,2.40625,1.7564481496810913
19-03-1992,2.375,2.4375,394400,2.4375,2.40625,1.7564481496810913
20-03-1992,2.453125,2.46875,232000,2.484375,2.46875,1.8020683526992798
23-03-1992,2.5,2.5,545600,2.546875,2.5,1.8248802423477173
24-03-1992,2.5,2.5,618400,2.578125,2.5625,1.870502233505249
25-03-1992,2.5625,2.578125,116800,2.578125,2.578125,1.8819080591201782
26-03-1992,2.609375,2.609375,959200,2.734375,2.6875,1.9617457389831543
27-03-1992,2.609375,2.625,236800,2.65625,2.625,1.9161248207092285
30-03-1992,2.609375,2.625,324800,2.625,2.625,1.9161248207092285
31-03-1992,2.640625,2.640625,307200,2.65625,2.65625,1.9389359951019287
01-04-1992,2.609375,2.65625,172800,2.65625,2.609375,1.9047200679779053
02-04-1992,2.578125,2.609375,878400,2.609375,2.59375,1.8933141231536865
03-04-1992,2.546875,2.5625,109600,2.5625,2.5625,1.870502233505249
06-04-1992,2.578125,2.578125,336000,2.734375,2.734375,1.9959633350372314
07-04-1992,2.6875,2.734375,612000,2.734375,2.6875,1.9617457389831543
08-04-1992,2.625,2.671875,771200,2.671875,2.625,1.9161248207092285
09-04-1992,2.609375,2.609375,170400,2.75,2.75,2.0121588706970215
10-04-1992,2.734375,2.734375,213600,2.75,2.734375,2.0007259845733643
13-04-1992,2.75,2.765625,141600,2.78125,2.765625,2.0235931873321533
14-04-1992,2.78125,2.78125,228000,2.8125,2.8125,2.0578908920288086
15-04-1992,2.8125,2.8125,312000,2.828125,2.828125,2.0693228244781494
16-04-1992,2.8125,2.8125,39200,2.828125,2.8125,2.0578908920288086
20-04-1992,2.8125,2.8125,245600,2.890625,2.890625,2.115053415298462
21-04-1992,2.875,2.921875,337600,2.921875,2.90625,2.1264867782592773
22-04-1992,2.875,2.890625,8800,2.890625,2.875,2.103621006011963
23-04-1992,2.84375,2.875,1366400,2.984375,2.875,2.103621006011963
24-04-1992,3.0,3.03125,687200,3.171875,3.0,2.1950836181640625
27-04-1992,3.03125,3.0625,511200,3.09375,3.046875,2.229381561279297
28-04-1992,3.015625,3.046875,234400,3.046875,3.03125,2.2179486751556396
29-04-1992,3.03125,3.046875,237600,3.046875,3.03125,2.2179486751556396
30-04-1992,3.03125,3.046875,1008800,3.0625,3.046875,2.229381561279297
01-05-1992,3.03125,3.03125,146400,3.046875,3.046875,2.229381561279297
04-05-1992,3.0625,3.0625,251200,3.078125,3.0625,2.2408125400543213
05-05-1992,3.046875,3.046875,532000,3.078125,3.078125,2.252246856689453
06-05-1992,3.015625,3.078125,792800,3.078125,3.015625,2.2065162658691406
07-05-1992,2.96875,3.015625,61600,3.015625,2.96875,2.172217845916748
08-05-1992,2.9375,3.0,42400,3.0,2.953125,2.1607847213745117
11-05-1992,2.90625,2.953125,91200,2.953125,2.90625,2.1264867782592773
12-05-1992,2.75,2.921875,1191200,2.921875,2.796875,2.0464584827423096
13-05-1992,2.765625,2.796875,261600,2.796875,2.765625,2.0235931873321533
14-05-1992,2.6875,2.765625,1236800,2.84375,2.84375,2.0807557106018066
15-05-1992,2.8125,2.828125,509600,2.90625,2.890625,2.115053415298462
18-05-1992,2.90625,2.90625,431200,3.015625,3.0,2.1950836181640625
19-05-1992,2.953125,3.0,572000,3.046875,3.046875,2.229381561279297
20-05-1992,3.0625,3.0625,200800,3.09375,3.09375,2.263678789138794
21-05-1992,3.078125,3.078125,946400,3.15625,3.09375,2.263678789138794
22-05-1992,3.078125,3.09375,230400,3.15625,3.140625,2.29797625541687
26-05-1992,3.125,3.140625,1300800,3.1875,3.1875,2.3322765827178955
27-05-1992,3.125,3.203125,1122400,3.25,3.125,2.286545753479004
28-05-1992,3.078125,3.140625,627200,3.140625,3.125,2.286545753479004
29-05-1992,3.078125,3.125,368800,3.125,3.09375,2.263678789138794
01-06-1992,3.078125,3.078125,348800,3.171875,3.171875,2.3208422660827637
02-06-1992,3.125,3.140625,108000,3.15625,3.140625,2.29797625541687
03-06-1992,3.125,3.15625,1278400,3.1875,3.15625,2.3094100952148438
04-06-1992,3.125,3.125,1169600,3.140625,3.140625,2.29797625541687
05-06-1992,3.140625,3.15625,816800,3.1875,3.1875,2.3322765827178955
08-06-1992,3.21875,3.21875,1822400,3.375,3.3125,2.423737049102783
09-06-1992,3.28125,3.3125,2077600,3.34375,3.3125,2.423737049102783
10-06-1992,3.21875,3.3125,778400,3.3125,3.28125,2.4008729457855225
11-06-1992,3.28125,3.28125,438400,3.40625,3.40625,2.492335081100464
12-06-1992,3.34375,3.375,2042400,3.375,3.34375,2.446604013442993
15-06-1992,3.296875,3.328125,2438400,3.328125,3.3125,2.423737049102783
16-06-1992,3.296875,3.328125,660800,3.328125,3.296875,2.412304639816284
17-06-1992,3.21875,3.3125,673600,3.3125,3.234375,2.3665735721588135
18-06-1992,3.21875,3.21875,948800,3.265625,3.234375,2.3665735721588135
19-06-1992,3.234375,3.25,417600,3.265625,3.234375,2.3665735721588135
22-06-1992,3.203125,3.203125,568000,3.21875,3.203125,2.343708038330078
23-06-1992,3.203125,3.203125,518400,3.21875,3.203125,2.343708038330078
24-06-1992,3.171875,3.21875,224000,3.21875,3.21875,2.3551418781280518
25-06-1992,3.125,3.21875,307200,3.21875,3.125,2.286545753479004
26-06-1992,3.109375,3.125,629600,3.140625,3.140625,2.29797625541687
29-06-1992,3.125,3.125,1169600,3.1875,3.171875,2.3208422660827637
30-06-1992,3.15625,3.1875,1156800,3.1875,3.1875,2.3322765827178955
01-07-1992,3.203125,3.21875,694400,3.25,3.25,2.378007173538208
02-07-1992,3.25,3.28125,2007200,3.296875,3.28125,2.4008729457855225
06-07-1992,3.296875,3.3125,771200,3.328125,3.3125,2.423737049102783
07-07-1992,3.3125,3.3125,655200,3.359375,3.328125,2.4351696968078613
08-07-1992,3.3125,3.328125,480800,3.34375,3.328125,2.4351696968078613
09-07-1992,3.328125,3.34375,424000,3.375,3.359375,2.462661027908325
10-07-1992,3.328125,3.390625,568800,3.390625,3.328125,2.4397518634796143
13-07-1992,3.328125,3.328125,624800,3.359375,3.359375,2.462661027908325
14-07-1992,3.390625,3.390625,627200,3.625,3.578125,2.6230199337005615
15-07-1992,3.515625,3.59375,465600,3.609375,3.53125,2.588656425476074
16-07-1992,3.390625,3.5,143200,3.5,3.421875,2.5084776878356934
17-07-1992,3.421875,3.4375,45600,3.453125,3.4375,2.5199320316314697
20-07-1992,3.390625,3.4375,645600,3.453125,3.390625,2.485569715499878
21-07-1992,3.390625,3.390625,224000,3.421875,3.40625,2.497023582458496
22-07-1992,3.40625,3.40625,235200,3.484375,3.484375,2.5542938709259033
23-07-1992,3.46875,3.5,112000,3.515625,3.5,2.5657479763031006
24-07-1992,3.5,3.5,329600,3.609375,3.609375,2.645928382873535
27-07-1992,3.5625,3.609375,66400,3.609375,3.59375,2.634474039077759
28-07-1992,3.53125,3.59375,91200,3.59375,3.5625,2.611565113067627
29-07-1992,3.546875,3.5625,84800,3.578125,3.578125,2.6230199337005615
30-07-1992,3.5625,3.5625,565600,3.640625,3.640625,2.668837308883667
31-07-1992,3.625,3.640625,500800,3.65625,3.640625,2.668837308883667
03-08-1992,3.625,3.625,492000,3.703125,3.703125,2.714653968811035
04-08-1992,3.6875,3.6875,398400,3.71875,3.71875,2.7261083126068115
05-08-1992,3.375,3.59375,268800,3.59375,3.40625,2.497023582458496
06-08-1992,3.171875,3.25,1166400,3.265625,3.25,2.3824803829193115
07-08-1992,3.25,3.25,996000,3.515625,3.515625,2.577202081680298
10-08-1992,3.5,3.515625,88000,3.5625,3.546875,2.6001107692718506
11-08-1992,3.546875,3.546875,2608000,3.5625,3.546875,2.6001107692718506
12-08-1992,3.5625,3.5625,92800,3.59375,3.59375,2.634474039077759
13-08-1992,3.609375,3.625,684800,3.734375,3.734375,2.737562656402588
14-08-1992,3.734375,3.78125,1344000,3.84375,3.75,2.749016046524048
17-08-1992,3.671875,3.71875,1498400,3.71875,3.6875,2.703200101852417
18-08-1992,3.578125,3.671875,823200,3.6875,3.59375,2.634474039077759
19-08-1992,3.5,3.5,844800,3.6875,3.5625,2.611565113067627
20-08-1992,3.5625,3.625,7611200,3.640625,3.59375,2.634474039077759
21-08-1992,3.59375,3.609375,1631200,3.640625,3.59375,2.634474039077759
24-08-1992,3.578125,3.578125,1412000,3.609375,3.578125,2.6230199337005615
25-08-1992,3.578125,3.578125,1002400,3.71875,3.671875,2.691746711730957
26-08-1992,3.6875,3.6875,1988000,3.75,3.75,2.749016046524048
27-08-1992,3.71875,3.734375,872800,3.796875,3.78125,2.7719244956970215
28-08-1992,3.8125,3.8125,1732800,3.9375,3.9375,2.886467218399048
31-08-1992,3.84375,3.90625,1392800,3.984375,3.875,2.8406498432159424
01-09-1992,3.859375,3.875,740000,3.9375,3.90625,2.8635590076446533
02-09-1992,3.875,3.9375,458400,3.953125,3.890625,2.852105140686035
03-09-1992,3.890625,3.90625,617600,3.921875,3.921875,2.875013589859009
04-09-1992,3.921875,3.921875,190400,3.96875,3.953125,2.8979218006134033
08-09-1992,3.953125,3.953125,1150400,4.09375,4.078125,2.9895567893981934
09-09-1992,4.0625,4.078125,660000,4.09375,4.09375,3.001009941101074
10-09-1992,4.0625,4.09375,809600,4.109375,4.078125,2.9895567893981934
11-09-1992,4.0625,4.078125,549600,4.109375,4.109375,3.012465000152588
14-09-1992,4.109375,4.140625,684000,4.171875,4.125,3.0239179134368896
15-09-1992,4.109375,4.125,557600,4.140625,4.109375,3.012465000152588
16-09-1992,4.09375,4.109375,723200,4.171875,4.125,3.0239179134368896
17-09-1992,4.125,4.125,565600,4.28125,4.21875,3.0926432609558105
18-09-1992,4.1875,4.1875,668000,4.3125,4.3125,3.1613688468933105
21-09-1992,4.328125,4.328125,808000,4.34375,4.34375,3.184278726577759
22-09-1992,4.296875,4.3125,662400,4.375,4.359375,3.1957321166992188
23-09-1992,4.359375,4.375,898400,4.46875,4.375,3.2071852684020996
24-09-1992,4.390625,4.390625,1256800,4.484375,4.46875,3.275912046432495
25-09-1992,4.203125,4.421875,1837600,4.4375,4.25,3.115551710128784
28-09-1992,4.109375,4.25,1749600,4.25,4.125,3.0239179134368896
29-09-1992,4.171875,4.203125,276800,4.234375,4.234375,3.1040987968444824
30-09-1992,4.15625,4.21875,330400,4.234375,4.15625,3.0468270778656006
01-10-1992,4.03125,4.140625,378400,4.140625,4.03125,2.9551923274993896
02-10-1992,4.015625,4.046875,772800,4.078125,4.046875,2.9666473865509033
05-10-1992,3.953125,4.046875,312000,4.046875,3.96875,2.909374713897705
06-10-1992,3.90625,3.96875,885600,3.96875,3.9375,2.886467218399048
07-10-1992,3.953125,3.953125,649600,4.015625,3.984375,2.920830726623535
08-10-1992,3.96875,3.96875,266400,4.0625,4.0,2.9368913173675537
09-10-1992,3.90625,3.96875,112000,4.03125,3.9375,2.891002655029297
12-10-1992,3.9375,3.9375,351200,3.953125,3.953125,2.902474880218506
13-10-1992,3.890625,3.9375,412000,3.953125,3.9375,2.891002655029297
14-10-1992,3.921875,3.9375,341600,3.953125,3.9375,2.891002655029297
15-10-1992,3.90625,3.9375,205600,3.9375,3.90625,2.8680579662323
16-10-1992,3.921875,3.921875,1151200,4.078125,4.0625,2.982779026031494
19-10-1992,4.0625,4.0625,756000,4.3125,4.28125,3.1433913707733154
20-10-1992,4.203125,4.265625,209600,4.265625,4.21875,3.0975019931793213
21-10-1992,4.140625,4.203125,104800,4.203125,4.15625,3.0516138076782227
22-10-1992,3.953125,4.140625,365600,4.140625,3.953125,2.902474880218506
23-10-1992,3.9375,3.96875,101600,3.96875,3.953125,2.902474880218506
26-10-1992,3.953125,3.953125,396800,4.015625,4.0,2.9368913173675537
27-10-1992,3.8125,3.984375,318400,3.984375,3.859375,2.8336410522460938
28-10-1992,3.71875,3.859375,920800,3.859375,3.828125,2.810697078704834
29-10-1992,3.828125,3.828125,348000,3.90625,3.84375,2.8221683502197266
30-10-1992,3.8125,3.875,143200,3.875,3.8125,2.7992238998413086
02-11-1992,3.828125,3.828125,156800,3.875,3.875,2.8451128005981445
03-11-1992,3.75,3.875,296800,3.875,3.75,2.753335475921631
04-11-1992,3.65625,3.765625,464000,3.78125,3.65625,2.684502124786377
05-11-1992,3.46875,3.625,1245600,3.625,3.484375,2.558306932449341
06-11-1992,3.53125,3.53125,1823200,3.671875,3.65625,2.684502124786377
09-11-1992,3.5,3.625,1322400,3.65625,3.546875,2.6041958332061768
10-11-1992,3.5625,3.5625,1669600,3.625,3.625,2.661557674407959
11-11-1992,3.5625,3.625,551200,3.625,3.5625,2.6156678199768066
12-11-1992,3.5625,3.625,1320800,3.640625,3.578125,2.627141237258911
13-11-1992,3.59375,3.609375,324000,3.640625,3.625,2.661557674407959
16-11-1992,3.609375,3.609375,257600,3.65625,3.65625,2.684502124786377
17-11-1992,3.625,3.625,304000,3.640625,3.625,2.661557674407959
18-11-1992,3.625,3.625,693600,3.640625,3.640625,2.673030138015747
19-11-1992,3.46875,3.609375,821600,3.640625,3.5,2.569779396057129
20-11-1992,3.53125,3.53125,536800,3.59375,3.59375,2.638613224029541
23-11-1992,3.5625,3.5625,660000,3.671875,3.625,2.661557674407959
24-11-1992,3.578125,3.609375,503200,3.609375,3.59375,2.638613224029541
25-11-1992,3.578125,3.578125,96000,3.609375,3.59375,2.638613224029541
27-11-1992,3.578125,3.59375,230400,3.625,3.625,2.661557674407959
30-11-1992,3.53125,3.625,539200,3.625,3.546875,2.6041958332061768
01-12-1992,3.53125,3.546875,1116800,3.546875,3.53125,2.5927233695983887
02-12-1992,3.53125,3.53125,721600,3.578125,3.578125,2.627141237258911
03-12-1992,3.421875,3.5625,1191200,3.5625,3.4375,2.523890733718872
04-12-1992,3.421875,3.4375,1249600,3.5,3.5,2.569779396057129
07-12-1992,3.484375,3.484375,167200,3.546875,3.5,2.569779396057129
08-12-1992,3.453125,3.5,580000,3.515625,3.484375,2.558306932449341
09-12-1992,3.484375,3.5,374400,3.546875,3.53125,2.5927233695983887
10-12-1992,3.484375,3.546875,1601600,3.609375,3.609375,2.65008544921875
11-12-1992,3.65625,3.65625,151200,3.703125,3.671875,2.6959760189056396
14-12-1992,3.609375,3.671875,920000,3.671875,3.65625,2.684502124786377
15-12-1992,3.609375,3.640625,406400,3.640625,3.625,2.661557674407959
16-12-1992,3.59375,3.609375,402400,3.625,3.59375,2.638613224029541
17-12-1992,3.5625,3.609375,52800,3.609375,3.5625,2.6156678199768066
18-12-1992,3.578125,3.59375,295200,3.59375,3.59375,2.638613224029541
21-12-1992,3.546875,3.578125,488000,3.578125,3.546875,2.6041958332061768
22-12-1992,3.53125,3.5625,960800,3.5625,3.546875,2.6041958332061768
23-12-1992,3.515625,3.546875,1008000,3.546875,3.515625,2.5812511444091797
24-12-1992,3.53125,3.546875,655200,3.59375,3.59375,2.638613224029541
28-12-1992,3.53125,3.578125,97600,3.578125,3.546875,2.6041958332061768
29-12-1992,3.53125,3.546875,596000,3.59375,3.5625,2.6156678199768066
30-12-1992,3.546875,3.578125,639200,3.578125,3.546875,2.6041958332061768
31-12-1992,3.5625,3.5625,376000,3.6875,3.671875,2.6959760189056396
04-01-1993,3.609375,3.6875,597600,3.71875,3.609375,2.65008544921875
05-01-1993,3.578125,3.609375,715200,3.6875,3.6875,2.707447052001953
06-01-1993,3.59375,3.6875,928800,3.6875,3.609375,2.65008544921875
07-01-1993,3.5625,3.609375,333600,3.609375,3.578125,2.627141237258911
08-01-1993,3.46875,3.578125,1617600,3.578125,3.46875,2.5468356609344482
11-01-1993,3.375,3.484375,410400,3.484375,3.390625,2.4948689937591553
12-01-1993,3.359375,3.390625,269600,3.40625,3.40625,2.50636625289917
13-01-1993,3.359375,3.40625,826400,3.484375,3.46875,2.552353858947754
14-01-1993,3.34375,3.4375,619200,3.453125,3.34375,2.4603772163391113
15-01-1993,3.359375,3.375,1232800,3.421875,3.390625,2.4948689937591553
18-01-1993,3.359375,3.390625,460000,3.390625,3.375,2.4833717346191406
19-01-1993,3.359375,3.359375,1157600,3.484375,3.453125,2.5408573150634766
20-01-1993,3.4375,3.453125,132800,3.484375,3.46875,2.552353858947754
21-01-1993,3.4375,3.4375,272800,3.5,3.5,2.575348138809204
22-01-1993,3.5,3.515625,540800,3.59375,3.59375,2.6443305015563965
25-01-1993,3.578125,3.578125,969600,3.703125,3.6875,2.713313341140747
26-01-1993,3.78125,3.8125,1224000,3.875,3.78125,2.782294988632202
27-01-1993,3.703125,3.734375,636000,3.765625,3.75,2.7593026161193848
28-01-1993,3.75,3.765625,773600,3.90625,3.90625,2.874272346496582
29-01-1993,3.890625,3.90625,492800,4.0,3.96875,2.920260190963745
01-02-1993,4.0,4.0,1876800,4.078125,4.0625,2.989243507385254
02-02-1993,4.046875,4.046875,1044000,4.09375,4.09375,3.0122368335723877
03-02-1993,4.09375,4.09375,1448000,4.359375,4.296875,3.1616992950439453
04-02-1993,4.328125,4.328125,1330400,4.4375,4.4375,3.265172004699707
05-02-1993,4.4375,4.4375,1606400,4.515625,4.5,3.3111605644226074
08-02-1993,4.46875,4.5,1975200,4.5,4.5,3.3111605644226074
09-02-1993,4.40625,4.5,756000,4.5,4.421875,3.2536780834198
10-02-1993,4.359375,4.421875,800000,4.453125,4.375,3.2191834449768066
11-02-1993,4.359375,4.359375,971200,4.5,4.484375,3.2996668815612793
12-02-1993,4.46875,4.484375,932000,4.484375,4.484375,3.2996668815612793
16-02-1993,4.34375,4.46875,292800,4.46875,4.34375,3.196192741394043
17-02-1993,4.34375,4.359375,632800,4.40625,4.390625,3.230682134628296
18-02-1993,4.421875,4.421875,604800,4.484375,4.4375,3.265172004699707
19-02-1993,4.421875,4.4375,3408800,4.515625,4.5,3.3111605644226074
22-02-1993,4.5,4.5,1140000,4.609375,4.5625,3.357149839401245
23-02-1993,4.5,4.59375,664000,4.59375,4.546875,3.345653772354126
24-02-1993,4.46875,4.515625,499200,4.515625,4.484375,3.2996668815612793
25-02-1993,4.359375,4.484375,259200,4.484375,4.359375,3.207688570022583
26-02-1993,4.359375,4.390625,128000,4.421875,4.40625,3.242180824279785
01-03-1993,4.421875,4.4375,1396000,4.53125,4.4375,3.265172004699707
02-03-1993,4.4375,4.46875,332800,4.484375,4.453125,3.2766716480255127
03-03-1993,4.46875,4.46875,4088800,4.84375,4.78125,3.518111228942871
04-03-1993,4.640625,4.75,913600,4.78125,4.734375,3.4836184978485107
05-03-1993,4.6875,4.71875,335200,4.734375,4.6875,3.449127435684204
08-03-1993,4.703125,4.703125,472000,4.796875,4.78125,3.518111228942871
09-03-1993,4.75,4.796875,324000,4.796875,4.78125,3.518111228942871
10-03-1993,4.734375,4.78125,199200,4.8125,4.8125,3.541102409362793
11-03-1993,4.796875,4.8125,213600,4.921875,4.890625,3.5985894203186035
12-03-1993,4.796875,4.921875,702400,4.921875,4.84375,3.564098596572876
15-03-1993,4.84375,4.84375,209600,4.875,4.875,3.587092638015747
16-03-1993,4.84375,4.859375,316800,4.875,4.859375,3.5755929946899414
17-03-1993,4.859375,4.875,136800,4.984375,4.984375,3.667572259902954
18-03-1993,4.921875,4.96875,444000,5.0,5.0,3.679070234298706
19-03-1993,4.96875,4.984375,300800,5.0,4.96875,3.6560752391815186
22-03-1993,4.96875,4.984375,640800,5.0,4.984375,3.667572259902954
23-03-1993,4.96875,5.015625,100800,5.015625,4.96875,3.6560752391815186
24-03-1993,4.96875,4.96875,574400,5.078125,4.96875,3.6560752391815186
25-03-1993,4.84375,4.90625,1020000,4.921875,4.84375,3.564098596572876
26-03-1993,4.8125,4.84375,753600,4.921875,4.90625,3.6100845336914062
29-03-1993,4.921875,4.921875,589600,4.984375,4.984375,3.667572259902954
30-03-1993,5.0,5.0,663200,5.03125,5.03125,3.7020649909973145
31-03-1993,4.96875,5.03125,558400,5.03125,5.015625,3.690565824508667
01-04-1993,4.984375,5.03125,537600,5.03125,5.0,3.679070234298706
02-04-1993,4.859375,4.953125,240800,4.953125,4.890625,3.5985894203186035
05-04-1993,4.875,4.90625,292800,4.90625,4.90625,3.6100845336914062
06-04-1993,4.875,4.90625,604800,4.90625,4.875,3.587092638015747
07-04-1993,4.8125,4.84375,860000,4.875,4.875,3.587092638015747
08-04-1993,4.859375,4.859375,24000,4.875,4.875,3.5926196575164795
12-04-1993,4.859375,4.859375,325600,4.96875,4.96875,3.6617085933685303
13-04-1993,4.84375,4.96875,1076800,5.03125,4.875,3.5926196575164795
14-04-1993,4.84375,4.890625,447200,4.890625,4.84375,3.5695903301239014
15-04-1993,4.8125,4.875,231200,4.921875,4.8125,3.5465588569641113
16-04-1993,4.796875,4.828125,356800,4.84375,4.84375,3.5695903301239014
19-04-1993,4.828125,4.828125,173600,4.890625,4.875,3.5926196575164795
20-04-1993,4.90625,4.90625,1133600,5.0625,4.984375,3.6732230186462402
21-04-1993,4.875,5.015625,185600,5.015625,4.875,3.5926196575164795
22-04-1993,4.671875,4.84375,335200,4.84375,4.671875,3.442927122116089
23-04-1993,4.46875,4.671875,786400,4.671875,4.5,3.316262722015381
26-04-1993,4.515625,4.53125,367200,4.640625,4.625,3.408381462097168
27-04-1993,4.625,4.65625,108000,4.65625,4.640625,3.4198970794677734
28-04-1993,4.625,4.625,189600,4.640625,4.640625,3.4198970794677734
29-04-1993,4.625,4.65625,383200,4.75,4.75,3.5004994869232178
30-04-1993,4.75,4.75,779200,4.96875,4.921875,3.6271629333496094
03-05-1993,4.953125,4.953125,249600,4.984375,4.953125,3.6501951217651367
04-05-1993,4.90625,4.921875,1332800,4.953125,4.921875,3.6271629333496094
05-05-1993,4.921875,4.921875,65600,4.9375,4.921875,3.6271629333496094
06-05-1993,4.921875,4.921875,664800,5.0,4.9375,3.638676881790161
07-05-1993,4.90625,4.921875,186400,4.96875,4.921875,3.6271629333496094
10-05-1993,4.8125,4.9375,828000,4.9375,4.8125,3.5465588569641113
11-05-1993,4.78125,4.78125,1120800,4.953125,4.9375,3.638676881790161
12-05-1993,4.90625,4.9375,852000,4.984375,4.953125,3.6501951217651367
13-05-1993,4.90625,4.90625,702400,5.09375,5.0625,3.7307958602905273
14-05-1993,5.0625,5.0625,931200,5.265625,5.171875,3.811399459838867
17-05-1993,5.15625,5.171875,390400,5.203125,5.203125,3.8344311714172363
18-05-1993,5.203125,5.203125,340800,5.328125,5.296875,3.9035191535949707
19-05-1993,5.1875,5.3125,412800,5.3125,5.234375,3.85745906829834
20-05-1993,5.21875,5.21875,216000,5.25,5.234375,3.85745906829834
21-05-1993,5.203125,5.234375,400000,5.234375,5.21875,3.845946788787842
24-05-1993,5.21875,5.25,496000,5.25,5.234375,3.85745906829834
25-05-1993,5.171875,5.1875,400800,5.25,5.1875,3.8229165077209473
26-05-1993,5.15625,5.1875,188000,5.203125,5.203125,3.8344311714172363
27-05-1993,5.203125,5.203125,511200,5.3125,5.3125,3.9150331020355225
28-05-1993,5.28125,5.296875,473600,5.3125,5.3125,3.9150331020355225
01-06-1993,5.328125,5.34375,619200,5.4375,5.40625,3.9841222763061523
02-06-1993,5.40625,5.40625,522400,5.625,5.5625,4.099269866943359
03-06-1993,5.484375,5.5625,403200,5.5625,5.515625,4.064725875854492
04-06-1993,5.484375,5.5,889600,5.515625,5.5,4.05320930480957
07-06-1993,5.484375,5.5,482400,5.515625,5.5,4.05320930480957
08-06-1993,5.421875,5.484375,277600,5.484375,5.4375,4.007151126861572
09-06-1993,5.40625,5.40625,262400,5.5,5.5,4.05320930480957
10-06-1993,5.4375,5.484375,779200,5.484375,5.4375,4.007151126861572
11-06-1993,5.234375,5.40625,606400,5.40625,5.234375,3.85745906829834
14-06-1993,5.125,5.21875,763200,5.21875,5.125,3.776855945587158
15-06-1993,5.125,5.125,288800,5.15625,5.125,3.776855945587158
16-06-1993,5.140625,5.140625,219200,5.203125,5.203125,3.8344311714172363
17-06-1993,5.21875,5.21875,193600,5.328125,5.25,3.8689756393432617
18-06-1993,5.265625,5.28125,224800,5.296875,5.265625,3.8804893493652344
21-06-1993,5.28125,5.28125,292800,5.359375,5.34375,3.938063144683838
22-06-1993,5.265625,5.34375,1112000,5.34375,5.265625,3.8804893493652344
23-06-1993,5.265625,5.265625,2466400,5.296875,5.296875,3.9035191535949707
24-06-1993,5.0625,5.296875,637600,5.296875,5.125,3.776855945587158
25-06-1993,5.109375,5.125,36000,5.125,5.125,3.776855945587158
28-06-1993,5.125,5.125,204800,5.140625,5.140625,3.7883708477020264
29-06-1993,4.984375,5.109375,648000,5.125,5.046875,3.7192821502685547
30-06-1993,5.03125,5.0625,552000,5.09375,5.09375,3.753828525543213
01-07-1993,5.015625,5.078125,376800,5.078125,5.046875,3.7192821502685547
02-07-1993,5.015625,5.0625,100000,5.0625,5.046875,3.7192821502685547
06-07-1993,5.0,5.046875,437600,5.09375,5.0,3.684739112854004
07-07-1993,4.96875,4.96875,1369600,5.078125,5.078125,3.7423126697540283
08-07-1993,5.078125,5.078125,955200,5.1875,5.1875,3.8229165077209473
09-07-1993,5.171875,5.171875,1352000,5.25,5.25,3.8745763301849365
12-07-1993,5.28125,5.28125,900000,5.34375,5.3125,3.9207000732421875
13-07-1993,5.28125,5.3125,100000,5.3125,5.28125,3.8976404666900635
14-07-1993,5.28125,5.28125,538400,5.3125,5.28125,3.8976404666900635
15-07-1993,5.21875,5.3125,338400,5.3125,5.25,3.8745763301849365
16-07-1993,5.234375,5.25,147200,5.265625,5.25,3.8745763301849365
19-07-1993,5.25,5.296875,417600,5.296875,5.28125,3.8976404666900635
20-07-1993,5.25,5.25,713600,5.3125,5.3125,3.9207000732421875
21-07-1993,5.3125,5.3125,395200,5.34375,5.3125,3.9207000732421875
22-07-1993,5.28125,5.3125,314400,5.3125,5.296875,3.9091684818267822
23-07-1993,5.25,5.296875,341600,5.3125,5.3125,3.9207000732421875
26-07-1993,5.296875,5.34375,196000,5.34375,5.296875,3.9091684818267822
27-07-1993,5.21875,5.265625,191200,5.28125,5.25,3.8745763301849365
28-07-1993,5.234375,5.25,356800,5.296875,5.265625,3.8861069679260254
29-07-1993,5.25,5.265625,98400,5.3125,5.296875,3.9091684818267822
30-07-1993,5.3125,5.3125,57600,5.328125,5.328125,3.9322333335876465
02-08-1993,5.3125,5.328125,1029600,5.46875,5.46875,4.036014080047607
03-08-1993,5.484375,5.484375,356000,5.578125,5.5625,4.1052045822143555
04-08-1993,5.546875,5.546875,400000,5.65625,5.625,4.15132999420166
05-08-1993,5.609375,5.609375,56000,5.640625,5.625,4.15132999420166
06-08-1993,5.578125,5.625,348800,5.625,5.59375,4.128268718719482
09-08-1993,5.609375,5.609375,344800,5.6875,5.6875,4.197458267211914
10-08-1993,5.6875,5.6875,632800,5.75,5.75,4.243582248687744
11-08-1993,5.78125,5.78125,784800,6.0,6.0,4.42808723449707
12-08-1993,5.984375,6.0,1103200,6.21875,6.015625,4.439616680145264
13-08-1993,5.9375,6.03125,226400,6.03125,5.9375,4.381960868835449
16-08-1993,5.9375,5.9375,448000,5.984375,5.984375,4.416554927825928
17-08-1993,6.0625,6.0625,640000,6.25,6.25,4.612590789794922
18-08-1993,6.234375,6.234375,805600,6.484375,6.421875,4.739436626434326
19-08-1993,6.3125,6.4375,424000,6.46875,6.3125,4.658720016479492
20-08-1993,6.3125,6.3125,914400,6.453125,6.453125,4.7624993324279785
23-08-1993,6.453125,6.46875,964800,6.703125,6.703125,4.947004795074463
24-08-1993,6.53125,6.703125,704000,6.703125,6.5625,4.843219757080078
25-08-1993,6.4375,6.5625,753600,6.578125,6.453125,4.7624993324279785
26-08-1993,6.25,6.453125,817600,6.453125,6.296875,4.647184371948242
27-08-1993,6.03125,6.28125,627200,6.28125,6.125,4.520338535308838
30-08-1993,6.109375,6.125,529600,6.25,6.21875,4.589527130126953
31-08-1993,6.171875,6.234375,888000,6.328125,6.28125,4.635653972625732
01-09-1993,6.28125,6.28125,388800,6.390625,6.375,4.704843521118164
02-09-1993,6.28125,6.375,286400,6.375,6.28125,4.635653972625732
03-09-1993,6.28125,6.28125,135200,6.328125,6.296875,4.647184371948242
07-09-1993,6.125,6.296875,236800,6.328125,6.125,4.520338535308838
08-09-1993,5.953125,6.125,388800,6.125,5.953125,4.39349365234375
09-09-1993,5.921875,5.953125,533600,5.984375,5.96875,4.405022621154785
10-09-1993,5.953125,5.96875,121600,5.984375,5.984375,4.416554927825928
13-09-1993,5.921875,5.984375,472800,6.03125,5.921875,4.370430946350098
14-09-1993,5.90625,5.953125,633600,5.96875,5.9375,4.381960868835449
15-09-1993,5.921875,5.9375,994400,6.046875,6.0,4.42808723449707
16-09-1993,6.0,6.0,152800,6.03125,6.0,4.42808723449707
17-09-1993,5.890625,5.96875,127200,5.96875,5.9375,4.381960868835449
20-09-1993,5.9375,5.9375,248000,5.96875,5.96875,4.405022621154785
21-09-1993,5.96875,5.96875,218400,6.03125,6.015625,4.439616680145264
22-09-1993,5.96875,6.0,99200,6.03125,5.96875,4.405022621154785
23-09-1993,5.953125,5.984375,232800,5.984375,5.984375,4.416554927825928
24-09-1993,5.953125,5.96875,357600,6.0,5.96875,4.405022621154785
27-09-1993,5.953125,5.953125,441600,6.0,5.984375,4.416554927825928
28-09-1993,5.921875,5.984375,326400,5.984375,5.9375,4.381960868835449
29-09-1993,5.9375,5.9375,1200800,6.453125,6.453125,4.7624993324279785
30-09-1993,6.453125,6.453125,755200,6.625,6.625,4.889341831207275
01-10-1993,6.59375,6.59375,599200,6.71875,6.71875,4.958534240722656
04-10-1993,6.640625,6.71875,248000,6.75,6.640625,4.900877475738525
05-10-1993,6.578125,6.65625,122400,6.65625,6.578125,4.8547515869140625
06-10-1993,6.5,6.578125,114400,6.578125,6.53125,4.820157051086426
07-10-1993,6.4375,6.5,224000,6.5,6.484375,4.785561561584473
08-10-1993,6.40625,6.484375,245600,6.484375,6.421875,4.744925498962402
11-10-1993,6.25,6.421875,288000,6.421875,6.25,4.6179327964782715
12-10-1993,6.125,6.25,272800,6.25,6.125,4.525573253631592
13-10-1993,5.96875,6.078125,826400,6.109375,5.984375,4.42166805267334
14-10-1993,6.0,6.09375,388000,6.125,6.03125,4.456305027008057
15-10-1993,5.828125,6.0,707200,6.0,5.875,4.340853691101074
18-10-1993,5.71875,5.875,719200,5.875,5.75,4.248497009277344
19-10-1993,5.484375,5.75,1467200,5.875,5.828125,4.306222915649414
20-10-1993,5.3125,5.796875,1626400,5.796875,5.3125,3.9252426624298096
21-10-1993,5.4375,5.4375,3216000,5.6875,5.5,4.063778877258301
22-10-1993,5.375,5.5,928800,5.5,5.375,3.9714207649230957
25-10-1993,5.28125,5.375,901600,5.421875,5.28125,3.9021525382995605
26-10-1993,5.0,5.28125,1536800,5.3125,5.03125,3.7174367904663086
27-10-1993,5.0625,5.0625,1416000,5.1875,5.1875,3.832883358001709
28-10-1993,5.1875,5.1875,1215200,5.453125,5.453125,4.02914571762085
29-10-1993,5.328125,5.421875,412800,5.46875,5.34375,3.9483320713043213
01-11-1993,5.34375,5.359375,379200,5.484375,5.453125,4.02914571762085
02-11-1993,5.453125,5.453125,553600,5.578125,5.5625,4.109958648681641
03-11-1993,5.578125,5.609375,540800,5.671875,5.625,4.156138896942139
04-11-1993,5.625,5.65625,345600,5.734375,5.625,4.156138896942139
05-11-1993,5.53125,5.625,112800,5.625,5.5625,4.109958648681641
08-11-1993,5.46875,5.5625,207200,5.5625,5.46875,4.040687561035156
09-11-1993,5.1875,5.46875,542400,5.46875,5.21875,3.8559746742248535
10-11-1993,5.21875,5.25,191200,5.28125,5.265625,3.8906078338623047
11-11-1993,5.203125,5.28125,564800,5.40625,5.21875,3.8559746742248535
12-11-1993,5.0625,5.203125,1202400,5.203125,5.203125,3.8444278240203857
15-11-1993,5.140625,5.203125,675200,5.234375,5.140625,3.7982490062713623
16-11-1993,4.875,4.96875,827200,4.984375,4.9375,3.648165225982666
17-11-1993,4.9375,5.0,1617600,5.203125,5.203125,3.8444278240203857
18-11-1993,5.15625,5.203125,463200,5.359375,5.296875,3.9136962890625
19-11-1993,5.21875,5.25,85600,5.265625,5.265625,3.8906078338623047
22-11-1993,5.078125,5.25,173600,5.25,5.078125,3.7520694732666016
23-11-1993,5.078125,5.109375,697600,5.21875,5.09375,3.7636146545410156
24-11-1993,5.109375,5.109375,556800,5.15625,5.15625,3.809795379638672
26-11-1993,5.03125,5.125,94400,5.125,5.03125,3.7174367904663086
29-11-1993,4.828125,4.96875,1270400,4.96875,4.828125,3.567351818084717
30-11-1993,4.78125,4.84375,457600,4.859375,4.828125,3.567351818084717
01-12-1993,4.828125,4.859375,316000,4.921875,4.859375,3.590441942214966
02-12-1993,4.84375,4.84375,429600,4.90625,4.859375,3.590441942214966
03-12-1993,4.875,4.875,142400,4.90625,4.875,3.601987600326538
06-12-1993,4.84375,4.875,308800,4.90625,4.890625,3.6135330200195312
07-12-1993,4.859375,4.875,528800,4.953125,4.90625,3.6250767707824707
08-12-1993,4.84375,4.890625,89600,4.890625,4.859375,3.590441942214966
09-12-1993,4.71875,4.859375,69600,4.859375,4.78125,3.5327205657958984
10-12-1993,4.796875,4.796875,271200,4.84375,4.828125,3.567351818084717
13-12-1993,4.71875,4.859375,102400,4.859375,4.765625,3.5211730003356934
14-12-1993,4.734375,4.796875,620800,4.8125,4.8125,3.555807590484619
15-12-1993,4.71875,4.765625,128000,4.765625,4.734375,3.4980833530426025
16-12-1993,4.75,4.75,565600,4.84375,4.78125,3.5327205657958984
17-12-1993,4.734375,4.796875,200800,4.8125,4.75,3.509627103805542
20-12-1993,4.40625,4.71875,927200,4.71875,4.515625,3.3364548683166504
21-12-1993,4.265625,4.546875,880000,4.546875,4.4375,3.278731107711792
22-12-1993,4.40625,4.453125,676000,4.75,4.734375,3.4980833530426025
23-12-1993,4.703125,4.703125,176000,4.796875,4.75,3.509627103805542
27-12-1993,4.6875,4.6875,1060000,4.890625,4.859375,3.590441942214966
28-12-1993,4.8125,4.890625,629600,4.921875,4.8125,3.555807590484619
29-12-1993,4.828125,4.828125,648000,4.890625,4.859375,3.590441942214966
30-12-1993,4.828125,4.84375,270400,4.859375,4.859375,3.590441942214966
31-12-1993,4.828125,4.859375,112800,4.875,4.875,3.601987600326538
03-01-1994,4.828125,4.875,332000,4.875,4.875,3.601987600326538
04-01-1994,4.84375,4.84375,202400,4.890625,4.890625,3.6135330200195312
05-01-1994,4.96875,4.96875,800000,5.25,5.203125,3.8444278240203857
06-01-1994,5.234375,5.234375,999200,5.484375,5.453125,4.02914571762085
07-01-1994,5.40625,5.46875,704800,5.46875,5.4375,4.017601490020752
10-01-1994,5.421875,5.421875,573600,5.640625,5.640625,4.173439979553223
11-01-1994,5.453125,5.59375,1028800,5.59375,5.5,4.06939172744751
12-01-1994,5.390625,5.5,296000,5.53125,5.40625,4.00002908706665
13-01-1994,5.3125,5.40625,10779200,5.421875,5.3125,3.930664300918579
14-01-1994,5.15625,5.28125,1295200,5.328125,5.15625,3.8150558471679688
17-01-1994,5.21875,5.25,1098400,5.3125,5.296875,3.919102668762207
18-01-1994,5.3125,5.3125,851200,5.4375,5.4375,4.023150444030762
19-01-1994,5.46875,5.46875,1249600,5.609375,5.515625,4.080953121185303
20-01-1994,5.359375,5.515625,487200,5.5625,5.359375,3.9653475284576416
21-01-1994,5.34375,5.390625,354400,5.421875,5.375,3.9769058227539062
24-01-1994,5.3125,5.390625,408800,5.40625,5.3125,3.930664300918579
25-01-1994,5.296875,5.3125,284000,5.328125,5.3125,3.930664300918579
26-01-1994,5.265625,5.3125,873600,5.40625,5.375,3.9769058227539062
27-01-1994,5.375,5.375,1322400,5.5625,5.546875,4.1040754318237305
28-01-1994,5.484375,5.5,303200,5.515625,5.5,4.06939172744751
31-01-1994,5.515625,5.53125,787200,5.671875,5.515625,4.080953121185303
01-02-1994,5.546875,5.546875,700800,5.625,5.609375,4.150317668914795
02-02-1994,5.578125,5.578125,999200,5.9375,5.765625,4.265929222106934
03-02-1994,5.734375,5.8125,155200,5.8125,5.75,4.254366397857666
04-02-1994,5.703125,5.78125,1171200,5.828125,5.71875,4.23124361038208
07-02-1994,5.609375,5.671875,363200,5.671875,5.625,4.1618804931640625
08-02-1994,5.59375,5.625,355200,5.75,5.734375,4.242805480957031
09-02-1994,5.59375,5.734375,272800,5.734375,5.65625,4.185000419616699
10-02-1994,5.5,5.65625,944800,5.65625,5.5,4.06939172744751
11-02-1994,5.5,5.53125,212800,5.71875,5.6875,4.208121299743652
14-02-1994,5.40625,5.6875,335200,5.6875,5.5,4.06939172744751
15-02-1994,5.46875,5.46875,137600,5.53125,5.5,4.06939172744751
16-02-1994,5.375,5.46875,541600,5.484375,5.375,3.9769058227539062
17-02-1994,5.34375,5.390625,538400,5.46875,5.34375,3.9537837505340576
18-02-1994,5.328125,5.375,437600,5.390625,5.34375,3.9537837505340576
22-02-1994,5.359375,5.375,83200,5.40625,5.375,3.9769058227539062
23-02-1994,5.34375,5.34375,152000,5.4375,5.421875,4.011590957641602
24-02-1994,5.375,5.421875,108800,5.4375,5.4375,4.023150444030762
25-02-1994,5.46875,5.5,848800,5.5625,5.46875,4.046272277832031
28-02-1994,5.375,5.46875,57600,5.46875,5.375,3.9769058227539062
01-03-1994,5.34375,5.40625,180000,5.40625,5.375,3.9769058227539062
02-03-1994,5.28125,5.34375,310400,5.34375,5.3125,3.930664300918579
03-03-1994,5.296875,5.328125,92800,5.34375,5.3125,3.930664300918579
04-03-1994,5.296875,5.296875,196800,5.40625,5.390625,3.98846697807312
07-03-1994,5.34375,5.40625,268800,5.40625,5.34375,3.9537837505340576
08-03-1994,5.234375,5.3125,516800,5.328125,5.234375,3.8728604316711426
09-03-1994,4.96875,5.203125,609600,5.203125,5.03125,3.722569704055786
10-03-1994,4.921875,5.015625,894400,5.046875,4.9375,3.6532034873962402
11-03-1994,4.921875,4.953125,410400,5.03125,5.015625,3.7110095024108887
14-03-1994,5.015625,5.015625,308800,5.1875,5.171875,3.8266170024871826
15-03-1994,5.21875,5.21875,446400,5.328125,5.28125,3.9075424671173096
16-03-1994,5.25,5.265625,458400,5.296875,5.28125,3.9075424671173096
17-03-1994,5.265625,5.265625,423200,5.515625,5.484375,4.057833194732666
18-03-1994,5.5,5.53125,879200,5.6875,5.6875,4.208121299743652
21-03-1994,5.671875,5.71875,813600,5.734375,5.71875,4.23124361038208
22-03-1994,5.6875,5.6875,1078400,5.8125,5.796875,4.289044380187988
23-03-1994,5.625,5.6875,722400,5.6875,5.671875,4.196560859680176
24-03-1994,5.5625,5.59375,674400,5.65625,5.625,4.1618804931640625
25-03-1994,5.609375,5.609375,510400,5.671875,5.625,4.1618804931640625
28-03-1994,5.4375,5.609375,1590400,5.609375,5.4375,4.023150444030762
29-03-1994,5.25,5.421875,617600,5.421875,5.25,3.884422779083252
30-03-1994,5.109375,5.234375,567200,5.328125,5.3125,3.930664300918579
31-03-1994,5.265625,5.3125,148800,5.34375,5.34375,3.9537837505340576
04-04-1994,5.25,5.3125,445600,5.3125,5.265625,3.8959808349609375
05-04-1994,5.234375,5.28125,940000,5.328125,5.25,3.884422779083252
06-04-1994,5.21875,5.3125,240000,5.375,5.375,3.9769058227539062
07-04-1994,5.34375,5.375,574400,5.4375,5.34375,3.9537837505340576
08-04-1994,5.3125,5.328125,169600,5.34375,5.34375,3.9537837505340576
11-04-1994,5.265625,5.3125,698400,5.3125,5.296875,3.9246110916137695
12-04-1994,5.3125,5.3125,1101600,5.40625,5.375,3.9824955463409424
13-04-1994,5.359375,5.375,604000,5.4375,5.4375,4.028804779052734
14-04-1994,5.359375,5.390625,1280800,5.53125,5.53125,4.098264694213867
15-04-1994,5.46875,5.53125,826400,5.875,5.875,4.352960109710693
18-04-1994,5.6875,5.8125,1331200,5.8125,5.796875,4.295072078704834
19-04-1994,5.734375,5.78125,704000,5.8125,5.734375,4.248769760131836
20-04-1994,5.703125,5.71875,727200,5.71875,5.71875,4.237189769744873
21-04-1994,5.703125,5.703125,480000,5.765625,5.75,4.260345458984375
22-04-1994,5.71875,5.734375,332000,5.796875,5.765625,4.271923065185547
25-04-1994,5.734375,5.765625,498400,5.9375,5.9375,4.399268627166748
26-04-1994,5.9375,5.9375,1096000,5.96875,5.96875,4.422422409057617
28-04-1994,5.9375,5.953125,856800,6.015625,5.953125,4.410844326019287
29-04-1994,5.890625,5.9375,535200,5.9375,5.9375,4.399268627166748
02-05-1994,5.890625,5.90625,652000,5.953125,5.953125,4.410844326019287
03-05-1994,5.859375,5.9375,560800,5.9375,5.875,4.352960109710693
04-05-1994,5.875,5.875,358400,5.9375,5.9375,4.399268627166748
05-05-1994,5.921875,5.96875,66400,5.96875,5.921875,4.387692451477051
06-05-1994,5.921875,5.921875,343200,6.125,6.09375,4.515041351318359
09-05-1994,6.03125,6.109375,453600,6.109375,6.078125,4.503459930419922
10-05-1994,6.09375,6.140625,632800,6.140625,6.09375,4.515041351318359
11-05-1994,6.03125,6.09375,187200,6.109375,6.03125,4.468732833862305
12-05-1994,6.03125,6.046875,806400,6.15625,6.140625,4.549767017364502
13-05-1994,6.109375,6.109375,257600,6.125,6.125,4.538190841674805
16-05-1994,6.109375,6.140625,293600,6.140625,6.109375,4.526614665985107
17-05-1994,5.890625,6.09375,1044000,6.09375,5.953125,4.410844326019287
18-05-1994,5.90625,5.96875,1417600,5.984375,5.96875,4.422422409057617
19-05-1994,5.890625,5.984375,205600,5.984375,5.890625,4.364537715911865
20-05-1994,5.8125,5.90625,309600,5.90625,5.828125,4.318230628967285
23-05-1994,5.765625,5.796875,208800,5.8125,5.765625,4.271923065185547
24-05-1994,5.703125,5.75,287200,5.75,5.703125,4.22561502456665
25-05-1994,5.65625,5.71875,179200,5.71875,5.65625,4.19088077545166
26-05-1994,5.515625,5.59375,840800,5.625,5.546875,4.109845161437988
27-05-1994,5.53125,5.5625,70400,5.59375,5.578125,4.132997989654541
31-05-1994,5.5,5.546875,752800,5.578125,5.5,4.075112342834473
01-06-1994,5.5,5.5,480800,5.546875,5.515625,4.086688995361328
02-06-1994,5.46875,5.5,600000,5.53125,5.46875,4.051959037780762
03-06-1994,5.34375,5.453125,136800,5.453125,5.421875,4.017228126525879
06-06-1994,5.453125,5.5,132800,5.5,5.46875,4.051959037780762
07-06-1994,5.46875,5.46875,863200,5.578125,5.5625,4.121420860290527
08-06-1994,5.4375,5.5625,276800,5.5625,5.46875,4.051959037780762
09-06-1994,5.375,5.4375,304800,5.4375,5.375,3.9824955463409424
10-06-1994,5.375,5.375,165600,5.578125,5.578125,4.132997989654541
13-06-1994,5.578125,5.578125,736800,5.703125,5.6875,4.214035987854004
14-06-1994,5.703125,5.703125,476000,5.75,5.75,4.260345458984375
15-06-1994,5.71875,5.75,292000,5.78125,5.734375,4.248769760131836
16-06-1994,5.71875,5.71875,132000,5.78125,5.78125,4.2835001945495605
17-06-1994,5.75,5.75,384000,5.90625,5.90625,4.3761138916015625
20-06-1994,5.75,5.9375,174800,5.9375,5.84375,4.329804420471191
21-06-1994,5.78125,5.78125,166400,5.90625,5.90625,4.3761138916015625
22-06-1994,5.875,5.96875,52800,5.96875,5.90625,4.3761138916015625
23-06-1994,5.75,5.96875,197200,5.96875,5.75,4.260345458984375
24-06-1994,5.59375,5.75,143200,5.75,5.71875,4.237189769744873
27-06-1994,5.625,5.6875,136800,5.75,5.71875,4.237189769744873
28-06-1994,5.59375,5.65625,190800,5.71875,5.71875,4.237189769744873
29-06-1994,5.65625,5.71875,94800,5.75,5.75,4.260345458984375
30-06-1994,5.59375,5.6875,440400,5.75,5.75,4.260345458984375
01-07-1994,5.625,5.75,150400,5.75,5.65625,4.19088077545166
05-07-1994,5.5,5.6875,72400,5.6875,5.5,4.075112342834473
06-07-1994,5.46875,5.5,182800,5.6875,5.6875,4.214035987854004
07-07-1994,5.59375,5.71875,36000,5.71875,5.59375,4.144572734832764
08-07-1994,5.5,5.5625,24000,5.59375,5.5,4.075112342834473
11-07-1994,5.5,5.53125,51600,5.5625,5.5625,4.127048969268799
12-07-1994,5.5,5.5625,98800,5.59375,5.5625,4.127048969268799
13-07-1994,5.40625,5.59375,277200,5.65625,5.5,4.080676078796387
14-07-1994,5.4375,5.53125,72800,5.53125,5.4375,4.034306526184082
15-07-1994,5.34375,5.40625,68800,5.40625,5.375,3.987933397293091
18-07-1994,5.3125,5.4375,261600,5.46875,5.46875,4.057492733001709
19-07-1994,5.375,5.4375,143200,5.4375,5.375,3.987933397293091
20-07-1994,5.3125,5.40625,31600,5.40625,5.3125,3.941561698913574
21-07-1994,5.1875,5.1875,230800,5.34375,5.34375,3.964747905731201
22-07-1994,5.1875,5.3125,37600,5.3125,5.21875,3.872009754180908
25-07-1994,5.03125,5.25,187200,5.25,5.03125,3.73289155960083
26-07-1994,4.9375,5.0625,230000,5.0625,4.96875,3.6865217685699463
27-07-1994,4.90625,5.0,551200,5.03125,4.9375,3.6633336544036865
28-07-1994,4.9375,4.9375,342800,5.0,5.0,3.709704637527466
29-07-1994,4.96875,5.0,209600,5.0,4.96875,3.6865217685699463
01-08-1994,4.9375,4.9375,620000,5.0,5.0,3.709704637527466
02-08-1994,4.9375,4.96875,216400,5.0,5.0,3.709704637527466
03-08-1994,4.90625,4.96875,430800,5.03125,5.0,3.709704637527466
04-08-1994,4.9375,4.96875,156400,5.0625,5.0,3.709704637527466
05-08-1994,4.78125,4.96875,233200,5.0,4.78125,3.547407865524292
08-08-1994,4.8125,4.84375,731600,4.90625,4.84375,3.593780279159546
09-08-1994,4.78125,4.8125,1479200,5.0,5.0,3.709704637527466
10-08-1994,5.03125,5.0625,600000,5.125,5.0625,3.7560768127441406
11-08-1994,4.96875,5.03125,326800,5.09375,4.96875,3.6865217685699463
12-08-1994,4.9375,4.96875,558400,5.03125,5.0,3.709704637527466
15-08-1994,4.96875,5.0,71600,5.0625,4.96875,3.6865217685699463
16-08-1994,4.9375,5.0,300800,5.0,4.9375,3.6633336544036865
17-08-1994,4.90625,4.9375,148800,5.0,4.96875,3.6865217685699463
18-08-1994,4.90625,4.96875,228400,4.96875,4.9375,3.6633336544036865
19-08-1994,4.90625,4.9375,330400,4.953125,4.90625,3.640150785446167
22-08-1994,4.8125,4.9375,137200,4.9375,4.8125,3.570594549179077
23-08-1994,4.78125,4.875,459200,4.90625,4.84375,3.593780279159546
24-08-1994,4.875,4.875,956000,5.03125,4.9375,3.6633336544036865
25-08-1994,4.75,4.96875,773200,4.96875,4.78125,3.547407865524292
26-08-1994,4.65625,4.8125,1071600,4.875,4.8125,3.570594549179077
29-08-1994,4.625,4.875,1677600,4.875,4.71875,3.5010344982147217
30-08-1994,4.6875,4.71875,976800,4.8125,4.8125,3.570594549179077
31-08-1994,4.75,4.8125,1103600,4.90625,4.8125,3.570594549179077
01-09-1994,4.78125,4.78125,967600,4.875,4.84375,3.593780279159546
02-09-1994,4.84375,4.90625,250400,4.9375,4.9375,3.6633336544036865
06-09-1994,4.875,4.90625,397200,5.03125,5.03125,3.73289155960083
07-09-1994,5.0625,5.0625,1347600,5.25,5.1875,3.848820447921753
08-09-1994,5.125,5.125,1925200,5.4375,5.4375,4.034306526184082
09-09-1994,5.125,5.375,1384800,5.375,5.125,3.8024494647979736
12-09-1994,5.125,5.1875,572800,5.21875,5.125,3.8024494647979736
13-09-1994,5.125,5.15625,136400,5.1875,5.15625,3.825634717941284
14-09-1994,5.125,5.125,378800,5.25,5.25,3.8951940536499023
15-09-1994,5.21875,5.25,1040800,5.3125,5.25,3.8951940536499023
16-09-1994,5.25,5.28125,429600,5.375,5.375,3.987933397293091
19-09-1994,5.25,5.375,374400,5.375,5.25,3.8951940536499023
20-09-1994,5.0,5.1875,248400,5.1875,5.125,3.8024494647979736
21-09-1994,4.9375,5.125,303200,5.125,5.0,3.709704637527466
22-09-1994,5.0,5.0625,68000,5.0625,5.0,3.709704637527466
23-09-1994,5.0625,5.0625,456000,5.21875,5.1875,3.848820447921753
26-09-1994,5.15625,5.15625,168800,5.25,5.25,3.8951940536499023
27-09-1994,5.15625,5.21875,271200,5.21875,5.1875,3.848820447921753
28-09-1994,5.15625,5.1875,45600,5.21875,5.15625,3.825634717941284
29-09-1994,5.125,5.1875,135200,5.1875,5.15625,3.825634717941284
30-09-1994,5.0625,5.1875,63600,5.1875,5.09375,3.7792649269104004
03-10-1994,5.0625,5.09375,100000,5.125,5.0625,3.7560768127441406
04-10-1994,4.96875,5.09375,256800,5.09375,4.96875,3.6865217685699463
05-10-1994,4.96875,4.96875,100400,5.03125,5.03125,3.73289155960083
06-10-1994,5.03125,5.0625,187200,5.125,5.0625,3.7560768127441406
07-10-1994,5.09375,5.09375,220000,5.3125,5.28125,3.924191474914551
10-10-1994,5.28125,5.28125,344000,5.375,5.3125,3.9474105834960938
11-10-1994,5.3125,5.3125,328800,5.375,5.3125,3.9474105834960938
12-10-1994,5.15625,5.25,155600,5.25,5.15625,3.8313097953796387
13-10-1994,5.1875,5.21875,285600,5.28125,5.25,3.9009711742401123
14-10-1994,5.1875,5.25,151200,5.25,5.25,3.9009711742401123
17-10-1994,5.25,5.3125,88000,5.3125,5.25,3.9009711742401123
18-10-1994,5.25,5.25,153200,5.375,5.375,3.99385142326355
19-10-1994,5.34375,5.34375,236000,5.4375,5.34375,3.9706273078918457
20-10-1994,5.21875,5.3125,174000,5.34375,5.25,3.9009711742401123
21-10-1994,5.1875,5.1875,66800,5.25,5.21875,3.877753496170044
24-10-1994,5.1875,5.25,72800,5.34375,5.3125,3.9474105834960938
25-10-1994,5.1875,5.3125,243200,5.34375,5.25,3.9009711742401123
26-10-1994,5.21875,5.25,512800,5.40625,5.40625,4.01707124710083
27-10-1994,5.375,5.375,1548800,5.625,5.53125,4.109950542449951
28-10-1994,5.46875,5.5,638000,5.6875,5.65625,4.202831745147705
31-10-1994,5.5,5.625,102000,5.625,5.53125,4.109950542449951
01-11-1994,5.46875,5.53125,71200,5.5625,5.5625,4.133171558380127
02-11-1994,5.4375,5.53125,349600,5.53125,5.46875,4.063511848449707
03-11-1994,5.46875,5.5,54000,5.5625,5.53125,4.109950542449951
04-11-1994,5.46875,5.46875,237600,5.53125,5.46875,4.063511848449707
07-11-1994,5.4375,5.5,145600,5.5,5.4375,4.0402913093566895
08-11-1994,5.375,5.40625,126800,5.4375,5.40625,4.01707124710083
09-11-1994,5.4375,5.4375,328400,5.46875,5.4375,4.0402913093566895
10-11-1994,5.4375,5.4375,60800,5.46875,5.4375,4.0402913093566895
11-11-1994,5.34375,5.4375,80800,5.46875,5.34375,3.9706273078918457
14-11-1994,5.21875,5.3125,125600,5.3125,5.25,3.9009711742401123
15-11-1994,5.21875,5.25,166400,5.28125,5.28125,3.924191474914551
16-11-1994,5.15625,5.21875,154800,5.25,5.15625,3.8313097953796387
17-11-1994,4.90625,5.09375,990400,5.09375,4.96875,3.691990375518799
18-11-1994,4.625,4.90625,1564800,4.90625,4.78125,3.55267071723938
21-11-1994,4.71875,4.8125,789600,4.84375,4.75,3.529449462890625
22-11-1994,4.625,4.6875,559600,4.71875,4.6875,3.4830095767974854
23-11-1994,4.5,4.71875,952400,4.71875,4.59375,3.413349151611328
25-11-1994,4.53125,4.5625,45600,4.59375,4.53125,3.3669092655181885
28-11-1994,4.46875,4.59375,1295600,4.59375,4.53125,3.3669092655181885
29-11-1994,4.46875,4.53125,1277200,4.625,4.59375,3.413349151611328
30-11-1994,4.53125,4.625,410400,4.625,4.53125,3.3669092655181885
01-12-1994,4.5,4.53125,507600,4.65625,4.625,3.436569929122925
02-12-1994,4.625,4.625,588000,4.6875,4.625,3.436569929122925
05-12-1994,4.375,4.59375,1013600,4.65625,4.375,3.2508091926574707
06-12-1994,4.375,4.375,664400,4.4375,4.375,3.2508091926574707
07-12-1994,4.34375,4.375,218400,4.5625,4.5625,3.3901283740997314
08-12-1994,4.53125,4.53125,552800,4.8125,4.6875,3.4830095767974854
09-12-1994,4.5625,4.625,588400,4.625,4.59375,3.413349151611328
12-12-1994,4.625,4.625,519200,4.6875,4.65625,3.459789276123047
13-12-1994,4.65625,4.65625,408000,4.78125,4.75,3.529449462890625
14-12-1994,4.78125,4.78125,529200,4.96875,4.9375,3.668768882751465
15-12-1994,4.8125,4.96875,116000,4.96875,4.84375,3.599112033843994
16-12-1994,4.8125,4.84375,312800,4.875,4.84375,3.599112033843994
19-12-1994,4.75,4.84375,426800,4.84375,4.8125,3.5758907794952393
20-12-1994,4.625,4.75,305200,4.8125,4.65625,3.459789276123047
21-12-1994,4.59375,4.6875,634400,4.6875,4.625,3.436569929122925
22-12-1994,4.53125,4.65625,284000,4.65625,4.53125,3.3669092655181885
23-12-1994,4.53125,4.5625,29600,4.59375,4.5625,3.3901283740997314
27-12-1994,4.4375,4.59375,209600,4.59375,4.5,3.3436880111694336
28-12-1994,4.5,4.5,228800,4.59375,4.59375,3.413349151611328
29-12-1994,4.65625,4.65625,221200,4.8125,4.71875,3.5062291622161865
30-12-1994,4.6875,4.71875,150400,4.78125,4.6875,3.4830095767974854
03-01-1995,4.65625,4.75,129600,4.78125,4.75,3.529449462890625
04-01-1995,4.6875,4.75,68400,4.8125,4.71875,3.5062291622161865
05-01-1995,4.59375,4.65625,260000,4.6875,4.65625,3.459789276123047
06-01-1995,4.5,4.6875,404800,4.6875,4.5625,3.3901283740997314
09-01-1995,4.46875,4.53125,613600,4.5625,4.46875,3.3259358406066895
10-01-1995,4.3125,4.4375,289600,4.4375,4.3125,3.2096457481384277
11-01-1995,4.3125,4.3125,124800,4.40625,4.40625,3.2794220447540283
12-01-1995,4.3125,4.375,374400,4.4375,4.3125,3.2096457481384277
13-01-1995,4.28125,4.3125,66800,4.40625,4.375,3.256162405014038
16-01-1995,4.28125,4.3125,480800,4.328125,4.3125,3.2096457481384277
17-01-1995,4.3125,4.3125,437600,4.4375,4.40625,3.2794220447540283
18-01-1995,4.40625,4.40625,606000,4.59375,4.5625,3.39571213722229
19-01-1995,4.5,4.5625,248000,4.5625,4.5,3.349193572998047
20-01-1995,4.5,4.53125,76400,4.53125,4.53125,3.3724539279937744
23-01-1995,4.375,4.46875,128800,4.5,4.375,3.256162405014038
24-01-1995,4.375,4.375,345600,4.5625,4.53125,3.3724539279937744
25-01-1995,4.46875,4.53125,129600,4.53125,4.5,3.349193572998047
26-01-1995,4.5,4.5,145200,4.625,4.625,3.4422266483306885
27-01-1995,4.5,4.5625,512000,4.59375,4.53125,3.3724539279937744
30-01-1995,4.4375,4.53125,193200,4.53125,4.46875,3.3259358406066895
31-01-1995,4.4375,4.4375,186400,4.53125,4.4375,3.3026790618896484
01-02-1995,4.4375,4.4375,46000,4.5,4.46875,3.3259358406066895
02-02-1995,4.4375,4.46875,41600,4.5,4.46875,3.3259358406066895
03-02-1995,4.4375,4.5,243600,4.53125,4.5,3.349193572998047
06-02-1995,4.5625,4.625,651200,4.8125,4.75,3.5352606773376465
07-02-1995,4.6875,4.8125,437200,4.8125,4.6875,3.488743543624878
08-02-1995,4.71875,4.71875,549600,4.8125,4.75,3.5352606773376465
09-02-1995,4.6875,4.78125,278800,4.78125,4.6875,3.488743543624878
10-02-1995,4.6875,4.71875,243600,4.78125,4.78125,3.5585200786590576
13-02-1995,4.8125,4.8125,264800,4.90625,4.84375,3.605037212371826
14-02-1995,4.75,4.84375,137600,4.84375,4.84375,3.605037212371826
15-02-1995,4.8125,4.84375,277200,4.96875,4.9375,3.6748099327087402
16-02-1995,4.9375,4.9375,477600,5.03125,5.0,3.7213294506073
17-02-1995,5.0,5.0,261200,5.125,5.125,3.8143606185913086
21-02-1995,5.09375,5.125,92400,5.125,5.125,3.8143606185913086
22-02-1995,5.0625,5.09375,214400,5.125,5.09375,3.7911040782928467
23-02-1995,5.0625,5.125,348800,5.15625,5.15625,3.837618589401245
24-02-1995,5.09375,5.15625,281200,5.15625,5.125,3.8143606185913086
27-02-1995,5.09375,5.125,381600,5.15625,5.15625,3.837618589401245
28-02-1995,5.15625,5.1875,322400,5.21875,5.21875,3.884139060974121
01-03-1995,5.15625,5.1875,70800,5.1875,5.15625,3.837618589401245
02-03-1995,5.15625,5.15625,218800,5.25,5.25,3.9073941707611084
03-03-1995,5.21875,5.25,259600,5.28125,5.25,3.9073941707611084
06-03-1995,5.15625,5.25,236400,5.25,5.21875,3.884139060974121
07-03-1995,5.125,5.25,405200,5.25,5.125,3.8143606185913086
08-03-1995,5.125,5.15625,442800,5.28125,5.21875,3.884139060974121
09-03-1995,5.1875,5.25,179600,5.28125,5.28125,3.9306528568267822
10-03-1995,5.15625,5.25,170400,5.25,5.15625,3.837618589401245
13-03-1995,5.15625,5.1875,100800,5.21875,5.1875,3.8608765602111816
14-03-1995,5.1875,5.1875,101600,5.25,5.25,3.9073941707611084
15-03-1995,5.25,5.25,317200,5.34375,5.3125,3.953911066055298
16-03-1995,5.28125,5.28125,635600,5.5,5.4375,4.046943187713623
17-03-1995,5.3125,5.40625,492800,5.5,5.4375,4.046943187713623
20-03-1995,5.28125,5.40625,426800,5.5,5.34375,3.9771666526794434
21-03-1995,5.25,5.3125,159600,5.3125,5.25,3.9073941707611084
22-03-1995,5.28125,5.3125,349200,5.375,5.3125,3.953911066055298
23-03-1995,5.3125,5.34375,279600,5.4375,5.40625,4.023685455322266
24-03-1995,5.28125,5.40625,696000,5.40625,5.3125,3.953911066055298
27-03-1995,5.3125,5.34375,314400,5.5,5.5,4.0934600830078125
28-03-1995,5.5,5.5,268800,5.5625,5.5625,4.13997745513916
29-03-1995,5.5625,5.5625,458000,5.6875,5.625,4.186495304107666
30-03-1995,5.65625,5.65625,414400,5.875,5.875,4.37255859375
31-03-1995,5.90625,5.90625,1336800,6.21875,6.15625,4.581882953643799
03-04-1995,5.96875,6.15625,1253600,6.15625,5.96875,4.4423346519470215
04-04-1995,5.84375,5.96875,666000,5.96875,5.875,4.37255859375
05-04-1995,5.84375,5.875,1044800,5.96875,5.90625,4.395817756652832
06-04-1995,5.71875,5.875,704000,5.875,5.71875,4.2562689781188965
07-04-1995,5.625,5.6875,227600,5.75,5.625,4.19199275970459
10-04-1995,5.59375,5.59375,525600,5.75,5.75,4.2851481437683105
11-04-1995,5.6875,5.78125,668400,5.78125,5.75,4.2851481437683105
12-04-1995,5.71875,5.75,110400,5.78125,5.78125,4.308435440063477
13-04-1995,5.75,5.8125,191600,5.875,5.75,4.2851481437683105
17-04-1995,5.75,5.78125,133200,5.8125,5.75,4.2851481437683105
18-04-1995,5.5625,5.75,805200,5.75,5.5625,4.145414352416992
19-04-1995,5.53125,5.59375,182400,5.625,5.625,4.19199275970459
20-04-1995,5.625,5.625,356000,5.78125,5.78125,4.308435440063477
21-04-1995,5.8125,5.8125,1894000,6.1875,6.09375,4.541324615478516
24-04-1995,5.9375,6.125,940800,6.1875,5.9375,4.424876689910889
25-04-1995,5.84375,5.875,103200,5.90625,5.84375,4.355011463165283
26-04-1995,5.71875,5.875,144000,5.875,5.78125,4.308435440063477
27-04-1995,5.65625,5.78125,390800,5.78125,5.65625,4.215280055999756
28-04-1995,5.6875,5.71875,266400,5.71875,5.71875,4.261857986450195
01-05-1995,5.71875,5.75,529200,5.78125,5.75,4.2851481437683105
02-05-1995,5.6875,5.75,406400,5.75,5.75,4.2851481437683105
03-05-1995,5.75,5.75,199600,5.8125,5.75,4.2851481437683105
04-05-1995,5.6875,5.75,215200,5.75,5.71875,4.261857986450195
05-05-1995,5.65625,5.6875,289200,5.75,5.65625,4.215280055999756
08-05-1995,5.625,5.65625,224000,5.6875,5.65625,4.215280055999756
09-05-1995,5.625,5.65625,509200,5.8125,5.8125,4.331724643707275
10-05-1995,5.78125,5.78125,706400,5.9375,5.9375,4.424876689910889
11-05-1995,5.78125,5.90625,222000,5.90625,5.8125,4.331724643707275
12-05-1995,5.75,5.8125,38800,5.8125,5.78125,4.308435440063477
15-05-1995,5.78125,5.8125,279600,5.875,5.875,4.37830114364624
16-05-1995,5.84375,5.90625,43200,5.9375,5.84375,4.355011463165283
17-05-1995,5.78125,5.84375,295600,5.84375,5.8125,4.331724643707275
18-05-1995,5.65625,5.8125,107600,5.8125,5.71875,4.261857986450195
19-05-1995,5.71875,5.71875,130800,5.75,5.75,4.2851481437683105
22-05-1995,5.6875,5.75,64000,5.75,5.6875,4.238568305969238
23-05-1995,5.71875,5.71875,340800,5.90625,5.875,4.37830114364624
24-05-1995,5.84375,5.875,449200,6.09375,6.09375,4.541324615478516
25-05-1995,6.0,6.03125,798400,6.125,6.0625,4.5180344581604
26-05-1995,5.9375,6.0625,177600,6.0625,5.96875,4.448169231414795
30-05-1995,5.9375,5.9375,303600,6.03125,6.03125,4.494746685028076
31-05-1995,6.0,6.0625,254800,6.0625,6.0625,4.5180344581604
01-06-1995,6.03125,6.0625,26000,6.09375,6.03125,4.494746685028076
02-06-1995,5.9375,6.0625,201600,6.09375,5.96875,4.448169231414795
05-06-1995,5.96875,6.0,137600,6.0,6.0,4.471458435058594
06-06-1995,5.875,6.0,53200,6.0,5.90625,4.401590824127197
07-06-1995,5.8125,5.9375,307600,5.9375,5.8125,4.331724643707275
08-06-1995,5.75,5.8125,242000,5.8125,5.78125,4.308435440063477
09-06-1995,5.75,5.78125,652000,5.8125,5.78125,4.308435440063477
12-06-1995,5.71875,5.78125,188000,5.78125,5.75,4.2851481437683105
13-06-1995,5.6875,5.6875,119200,5.71875,5.71875,4.261857986450195
14-06-1995,5.71875,5.78125,300400,5.78125,5.78125,4.308435440063477
15-06-1995,5.71875,5.75,186800,5.8125,5.8125,4.331724643707275
16-06-1995,5.6875,5.8125,190000,5.8125,5.6875,4.238568305969238
19-06-1995,5.59375,5.65625,399600,5.71875,5.6875,4.238568305969238
20-06-1995,5.34375,5.71875,788000,5.71875,5.34375,3.982388973236084
21-06-1995,5.1875,5.34375,494400,5.34375,5.21875,3.8892393112182617
22-06-1995,5.0625,5.21875,762800,5.21875,5.15625,3.8426578044891357
23-06-1995,5.1875,5.1875,2558400,5.34375,5.3125,3.9591033458709717
26-06-1995,5.25,5.28125,352400,5.375,5.34375,3.982388973236084
27-06-1995,5.3125,5.3125,496800,5.4375,5.40625,4.028969764709473
28-06-1995,5.21875,5.375,1011200,5.375,5.25,3.9125258922576904
29-06-1995,5.1875,5.25,250400,5.25,5.1875,3.8659462928771973
30-06-1995,5.21875,5.21875,653600,5.4375,5.4375,4.052257537841797
03-07-1995,5.34375,5.40625,317600,5.46875,5.46875,4.07554817199707
05-07-1995,5.28125,5.4375,124000,5.4375,5.28125,3.935814380645752
06-07-1995,5.21875,5.25,680800,5.28125,5.25,3.9125258922576904
07-07-1995,5.21875,5.25,272400,5.25,5.25,3.9125258922576904
10-07-1995,5.125,5.28125,638400,5.3125,5.125,3.819369316101074
11-07-1995,5.0,5.125,582000,5.28125,5.15625,3.8426578044891357
12-07-1995,5.1875,5.1875,335600,5.28125,5.25,3.9182260036468506
13-07-1995,5.21875,5.375,817600,5.4375,5.21875,3.8949029445648193
14-07-1995,5.15625,5.25,286000,5.28125,5.1875,3.871579647064209
17-07-1995,5.15625,5.1875,460400,5.25,5.21875,3.8949029445648193
18-07-1995,5.21875,5.21875,77600,5.28125,5.28125,3.9415478706359863
19-07-1995,5.1875,5.25,132000,5.28125,5.25,3.9182260036468506
20-07-1995,5.25,5.25,379200,5.375,5.28125,3.9415478706359863
21-07-1995,5.21875,5.28125,248000,5.375,5.34375,3.988192081451416
24-07-1995,5.3125,5.3125,176400,5.40625,5.375,4.011514663696289
25-07-1995,5.40625,5.40625,344000,5.46875,5.4375,4.058161735534668
26-07-1995,5.34375,5.40625,244000,5.40625,5.34375,3.988192081451416
27-07-1995,5.21875,5.28125,758000,5.375,5.28125,3.9415478706359863
28-07-1995,5.25,5.3125,111600,5.375,5.375,4.011514663696289
31-07-1995,5.34375,5.34375,217200,5.4375,5.40625,4.034837245941162
01-08-1995,5.1875,5.375,532800,5.375,5.21875,3.8949029445648193
02-08-1995,5.1875,5.21875,302000,5.25,5.21875,3.8949029445648193
03-08-1995,5.125,5.1875,552400,5.34375,5.34375,3.988192081451416
04-08-1995,5.28125,5.34375,558800,5.34375,5.34375,3.988192081451416
07-08-1995,5.34375,5.375,101600,5.40625,5.375,4.011514663696289
08-08-1995,5.34375,5.40625,305200,5.4375,5.34375,3.988192081451416
09-08-1995,5.3125,5.40625,703200,5.40625,5.3125,3.9648709297180176
10-08-1995,5.1875,5.3125,166000,5.34375,5.1875,3.871579647064209
11-08-1995,5.15625,5.15625,349600,5.3125,5.3125,3.9648709297180176
14-08-1995,5.25,5.34375,134400,5.34375,5.25,3.9182260036468506
15-08-1995,5.25,5.3125,108800,5.34375,5.25,3.9182260036468506
16-08-1995,5.125,5.21875,242000,5.21875,5.21875,3.8949029445648193
17-08-1995,5.1875,5.1875,371600,5.3125,5.28125,3.9415478706359863
18-08-1995,5.28125,5.28125,542400,5.5,5.40625,4.034837245941162
21-08-1995,5.40625,5.46875,575600,5.5,5.40625,4.034837245941162
22-08-1995,5.4375,5.4375,362400,5.53125,5.53125,4.128129482269287
23-08-1995,5.5625,5.5625,317600,5.71875,5.625,4.198095798492432
24-08-1995,5.46875,5.59375,2007200,5.625,5.5,4.104806900024414
25-08-1995,5.5,5.5,160000,5.53125,5.5,4.104806900024414
28-08-1995,5.46875,5.5,280000,5.5625,5.53125,4.128129482269287
29-08-1995,5.5,5.53125,56400,5.5625,5.53125,4.128129482269287
30-08-1995,5.625,5.625,290400,5.65625,5.65625,4.221418857574463
31-08-1995,5.6875,5.6875,116800,5.84375,5.8125,4.338034629821777
01-09-1995,5.84375,5.84375,431200,5.96875,5.96875,4.454648971557617
05-09-1995,5.90625,5.96875,545200,6.03125,6.03125,4.501294136047363
06-09-1995,5.90625,5.96875,415600,6.0,6.0,4.477971076965332
07-09-1995,5.78125,6.0,284000,6.03125,6.03125,4.501294136047363
08-09-1995,5.9375,6.03125,248000,6.09375,5.9375,4.431324481964111
11-09-1995,5.9375,5.96875,230800,6.03125,6.03125,4.501294136047363
12-09-1995,5.90625,6.0,312400,6.15625,6.15625,4.594585418701172
13-09-1995,6.03125,6.125,547600,6.125,6.0625,4.524616241455078
14-09-1995,5.9375,6.03125,348000,6.09375,6.09375,4.547938346862793
15-09-1995,6.0625,6.0625,221200,6.1875,6.1875,4.617906093597412
18-09-1995,6.125,6.15625,490000,6.34375,6.21875,4.641231060028076
19-09-1995,6.0,6.15625,504800,6.1875,6.15625,4.594585418701172
20-09-1995,6.0,6.125,284800,6.125,6.0,4.477971076965332
21-09-1995,5.9375,6.0625,451200,6.0625,6.03125,4.501294136047363
22-09-1995,5.78125,6.03125,143600,6.03125,5.875,4.384679794311523
25-09-1995,5.75,5.84375,183200,5.84375,5.78125,4.314712047576904
26-09-1995,5.65625,5.78125,232000,5.78125,5.65625,4.221418857574463
27-09-1995,5.625,5.6875,229200,5.75,5.75,4.291388034820557
28-09-1995,5.625,5.8125,263600,5.96875,5.625,4.198095798492432
29-09-1995,5.4375,5.59375,635600,5.59375,5.4375,4.058161735534668
02-10-1995,5.4375,5.46875,548400,5.6875,5.59375,4.174774646759033
03-10-1995,5.5625,5.5625,304400,5.6875,5.65625,4.221418857574463
04-10-1995,5.5625,5.625,230800,5.65625,5.65625,4.221418857574463
05-10-1995,5.5,5.625,76800,5.625,5.53125,4.128129482269287
06-10-1995,5.5,5.5,259200,5.5625,5.5625,4.151453018188477
09-10-1995,5.5,5.59375,48000,5.59375,5.5,4.104806900024414
10-10-1995,5.375,5.46875,109600,5.46875,5.375,4.011514663696289
11-10-1995,5.34375,5.375,166000,5.40625,5.34375,3.988192081451416
12-10-1995,5.34375,5.375,620000,5.5625,5.5,4.1105756759643555
13-10-1995,5.5,5.5,227200,5.59375,5.53125,4.13392972946167
16-10-1995,5.40625,5.53125,188800,5.53125,5.46875,4.08721923828125
17-10-1995,5.40625,5.4375,398400,5.5,5.5,4.1105756759643555
18-10-1995,5.25,5.4375,1966400,5.46875,5.25,3.9237327575683594
19-10-1995,5.21875,5.21875,1503600,5.3125,5.21875,3.9003782272338867
20-10-1995,5.125,5.25,333600,5.25,5.125,3.830308675765991
23-10-1995,5.0,5.15625,608000,5.15625,5.0,3.7368876934051514
24-10-1995,4.90625,5.0,1186800,5.0,4.9375,3.6901767253875732
25-10-1995,4.71875,4.9375,658400,4.9375,4.71875,3.5266880989074707
26-10-1995,4.6875,4.75,439600,4.8125,4.71875,3.5266880989074707
27-10-1995,4.71875,4.71875,352000,4.875,4.875,3.6434640884399414
30-10-1995,4.9375,4.9375,646800,5.0,4.96875,3.7135329246520996
31-10-1995,4.96875,5.0,314800,5.03125,5.0,3.7368876934051514
01-11-1995,5.0,5.0,390800,5.03125,5.0,3.7368876934051514
02-11-1995,4.9375,4.96875,42800,5.0,4.9375,3.6901767253875732
03-11-1995,4.875,4.875,165600,4.96875,4.96875,3.7135329246520996
06-11-1995,4.90625,4.96875,63600,4.96875,4.90625,3.6668174266815186
07-11-1995,4.9375,4.9375,476400,5.03125,5.03125,3.7602429389953613
08-11-1995,4.875,4.96875,907200,5.0,5.0,3.7368876934051514
09-11-1995,5.03125,5.09375,1176400,5.15625,5.03125,3.7602429389953613
10-11-1995,4.90625,5.03125,550000,5.03125,4.90625,3.6668174266815186
13-11-1995,4.9375,4.96875,446800,5.09375,5.09375,3.8069546222686768
14-11-1995,4.9375,5.03125,1045600,5.0625,4.96875,3.7135329246520996
15-11-1995,4.96875,4.96875,228000,5.03125,5.0,3.7368876934051514
16-11-1995,5.03125,5.03125,1046400,5.4375,5.375,4.017153263092041
17-11-1995,5.375,5.40625,906800,5.40625,5.40625,4.040509223937988
20-11-1995,5.1875,5.40625,585600,5.40625,5.1875,3.877021312713623
21-11-1995,5.1875,5.21875,363200,5.375,5.34375,3.9937965869903564
22-11-1995,5.34375,5.375,432800,5.40625,5.40625,4.040509223937988
24-11-1995,5.3125,5.40625,229200,5.40625,5.3125,3.9704437255859375
27-11-1995,5.125,5.21875,851200,5.21875,5.1875,3.877021312713623
28-11-1995,5.1875,5.1875,315200,5.28125,5.25,3.9237327575683594
29-11-1995,5.21875,5.28125,28800,5.28125,5.21875,3.9003782272338867
30-11-1995,5.1875,5.28125,311200,5.28125,5.25,3.9237327575683594
01-12-1995,5.25,5.25,308400,5.34375,5.28125,3.947086811065674
04-12-1995,5.125,5.3125,1056000,5.3125,5.3125,3.9704437255859375
05-12-1995,5.3125,5.3125,461200,5.375,5.375,4.017153263092041
06-12-1995,5.40625,5.40625,685200,5.4375,5.4375,4.0638651847839355
07-12-1995,5.4375,5.4375,720400,5.5,5.5,4.1105756759643555
08-12-1995,5.4375,5.46875,18838800,5.65625,5.65625,4.227352619171143
11-12-1995,5.71875,5.8125,5631200,5.875,5.875,4.390843391418457
12-12-1995,5.8125,5.875,2874000,5.90625,5.875,4.390843391418457
13-12-1995,5.84375,5.875,3176800,6.09375,6.0,4.4842658042907715
14-12-1995,5.90625,6.03125,2280000,6.09375,5.90625,4.414198875427246
15-12-1995,5.875,6.1875,1721200,6.21875,6.0,4.4842658042907715
18-12-1995,5.8125,5.9375,974000,5.96875,5.96875,4.460910320281982
19-12-1995,5.875,5.96875,876000,6.0625,6.0625,4.530976295471191
20-12-1995,6.03125,6.0625,2001200,6.21875,6.03125,4.5076189041137695
21-12-1995,6.0,6.03125,1896800,6.125,6.03125,4.5076189041137695
22-12-1995,5.9375,6.09375,1115600,6.15625,6.03125,4.5076189041137695
26-12-1995,6.03125,6.09375,490800,6.09375,6.03125,4.5076189041137695
27-12-1995,5.9375,6.03125,582000,6.03125,5.9375,4.43755578994751
28-12-1995,5.90625,5.90625,1150800,6.15625,6.15625,4.601041316986084
29-12-1995,5.9375,6.1875,677200,6.1875,6.0,4.4842658042907715
02-01-1996,6.03125,6.0625,579600,6.125,6.09375,4.5543293952941895
03-01-1996,5.875,6.125,1148000,6.125,5.96875,4.460910320281982
04-01-1996,5.9375,5.96875,1644000,6.0625,5.96875,4.460910320281982
05-01-1996,5.9375,5.9375,680800,6.09375,6.0625,4.530976295471191
08-01-1996,6.0625,6.0625,779200,6.125,6.125,4.5776872634887695
09-01-1996,5.9375,6.15625,948400,6.15625,6.0,4.4842658042907715
10-01-1996,5.84375,6.0,516400,6.03125,5.96875,4.460910320281982
11-01-1996,5.6875,5.8125,1618400,5.8125,5.78125,4.3262104988098145
12-01-1996,5.75,5.75,555200,5.8125,5.8125,4.3495941162109375
15-01-1996,5.75,5.875,1159200,5.875,5.75,4.302825927734375
16-01-1996,5.71875,5.75,1683200,5.8125,5.75,4.302825927734375
17-01-1996,5.59375,5.75,2281600,5.78125,5.75,4.302825927734375
18-01-1996,5.71875,5.75,504000,5.78125,5.78125,4.3262104988098145
19-01-1996,5.75,5.8125,803200,5.84375,5.75,4.302825927734375
22-01-1996,5.78125,5.78125,545600,5.875,5.875,4.396363258361816
23-01-1996,5.78125,5.84375,426400,5.90625,5.78125,4.3262104988098145
24-01-1996,5.78125,5.8125,539600,5.96875,5.875,4.396363258361816
25-01-1996,5.875,5.875,693600,5.96875,5.9375,4.44313383102417
26-01-1996,5.875,5.90625,1880000,5.90625,5.875,4.396363258361816
29-01-1996,5.875,5.90625,1636800,6.0,6.0,4.48990535736084
30-01-1996,5.96875,6.0,970800,6.03125,6.03125,4.513289928436279
31-01-1996,5.96875,6.03125,650000,6.125,6.09375,4.560060977935791
01-02-1996,6.125,6.125,2182400,6.3125,6.21875,4.653600215911865
02-02-1996,6.125,6.15625,1204000,6.25,6.15625,4.606829643249512
05-02-1996,6.0625,6.09375,923200,6.15625,6.09375,4.560060977935791
06-02-1996,6.03125,6.09375,938400,6.125,6.03125,4.513289928436279
07-02-1996,6.0625,6.09375,838800,6.15625,6.125,4.5834455490112305
08-02-1996,6.125,6.125,705600,6.25,6.1875,4.630217552185059
09-02-1996,6.125,6.1875,1770400,6.28125,6.25,4.676988124847412
12-02-1996,6.15625,6.25,4923200,6.65625,6.53125,4.887450695037842
13-02-1996,6.25,6.59375,3442800,6.59375,6.34375,4.747137069702148
14-02-1996,6.375,6.375,1570000,6.625,6.5625,4.910834312438965
15-02-1996,6.53125,6.53125,1637600,6.9375,6.90625,5.168071269989014
16-02-1996,6.65625,7.125,2182000,7.125,6.75,5.051143169403076
20-02-1996,6.5625,6.625,421200,6.71875,6.625,4.957603454589844
21-02-1996,6.53125,6.5625,1553600,6.71875,6.71875,5.0277581214904785
22-02-1996,6.59375,6.6875,1300800,6.75,6.6875,5.004371166229248
23-02-1996,6.5625,6.65625,660000,6.75,6.71875,5.0277581214904785
26-02-1996,6.5625,6.625,556400,6.65625,6.59375,4.934218883514404
27-02-1996,6.5,6.53125,532800,6.625,6.59375,4.934218883514404
28-02-1996,6.40625,6.59375,2225600,6.71875,6.40625,4.793909549713135
29-02-1996,6.1875,6.4375,956000,6.4375,6.25,4.676988124847412
01-03-1996,6.25,6.25,402800,6.34375,6.25,4.676988124847412
04-03-1996,6.1875,6.25,809200,6.34375,6.3125,4.723757743835449
05-03-1996,6.15625,6.25,574000,6.25,6.25,4.676988124847412
06-03-1996,6.1875,6.21875,830000,6.40625,6.40625,4.793909549713135
07-03-1996,6.3125,6.375,1132000,6.40625,6.375,4.770524501800537
08-03-1996,6.1875,6.1875,278400,6.28125,6.21875,4.653600215911865
11-03-1996,6.09375,6.1875,1366400,6.1875,6.15625,4.606829643249512
12-03-1996,6.09375,6.125,1108400,6.15625,6.125,4.5834455490112305
13-03-1996,6.125,6.125,1038800,6.1875,6.1875,4.630217552185059
14-03-1996,6.25,6.25,2724800,6.40625,6.3125,4.723757743835449
15-03-1996,6.0,6.25,1051600,6.25,6.0625,4.536674976348877
18-03-1996,6.0625,6.09375,4547200,6.375,6.375,4.770524501800537
19-03-1996,6.34375,6.375,473600,6.4375,6.34375,4.747137069702148
20-03-1996,6.1875,6.375,223600,6.375,6.1875,4.630217552185059
21-03-1996,6.125,6.1875,936800,6.28125,6.125,4.5834455490112305
22-03-1996,6.09375,6.15625,1019600,6.1875,6.09375,4.560060977935791
25-03-1996,6.0625,6.0625,907200,6.28125,6.28125,4.700370788574219
26-03-1996,6.25,6.28125,216800,6.3125,6.3125,4.723757743835449
27-03-1996,6.40625,6.5,1842000,6.59375,6.53125,4.887450695037842
28-03-1996,6.53125,6.53125,1270000,6.65625,6.65625,4.980988502502441
29-03-1996,6.5625,6.59375,1343600,6.625,6.59375,4.934218883514404
01-04-1996,6.5625,6.59375,752800,6.6875,6.6875,5.004371166229248
02-04-1996,6.65625,6.71875,1116400,6.875,6.84375,5.121299743652344
03-04-1996,6.71875,6.78125,1519600,6.96875,6.9375,5.191455364227295
04-04-1996,6.75,6.9375,796800,6.9375,6.875,5.144683837890625
08-04-1996,6.625,6.84375,1262800,6.84375,6.8125,5.09791374206543
09-04-1996,6.8125,6.8125,923200,6.90625,6.875,5.144683837890625
10-04-1996,6.78125,6.8125,1358000,6.96875,6.9375,5.191455364227295
11-04-1996,6.84375,6.875,932000,6.9375,6.875,5.1502509117126465
12-04-1996,6.59375,6.875,1120000,6.875,6.65625,4.986382007598877
15-04-1996,6.5625,6.59375,948000,6.78125,6.75,5.056612014770508
16-04-1996,6.6875,6.78125,846000,6.78125,6.75,5.056612014770508
17-04-1996,6.65625,6.75,1494800,6.75,6.6875,5.009788990020752
18-04-1996,6.5,6.6875,1113200,6.6875,6.53125,4.8927412033081055
19-04-1996,6.5,6.5,884400,6.6875,6.65625,4.986382007598877
22-04-1996,6.65625,6.65625,2457600,6.90625,6.8125,5.103433132171631
23-04-1996,6.78125,6.9375,1053200,7.0,6.90625,5.173661708831787
24-04-1996,6.90625,6.90625,1069200,7.15625,7.03125,5.267302989959717
25-04-1996,6.9375,6.96875,536800,7.0,6.9375,5.197072505950928
26-04-1996,6.78125,6.875,486400,6.9375,6.78125,5.080021858215332
29-04-1996,6.71875,6.71875,705200,6.875,6.78125,5.080021858215332
30-04-1996,6.59375,6.8125,779600,6.875,6.625,4.962970733642578
01-05-1996,6.5,6.625,808400,6.75,6.5,4.869330406188965
02-05-1996,6.46875,6.5625,373600,6.59375,6.5625,4.916149616241455
03-05-1996,6.53125,6.625,680000,6.625,6.625,4.962970733642578
06-05-1996,6.5625,6.59375,504400,6.65625,6.5625,4.916149616241455
07-05-1996,6.125,6.625,1395600,6.65625,6.21875,4.6586384773254395
08-05-1996,6.1875,6.25,620400,6.34375,6.25,4.682046413421631
09-05-1996,6.25,6.25,332000,6.375,6.375,4.775686740875244
10-05-1996,6.25,6.375,818400,6.40625,6.3125,4.728867053985596
13-05-1996,6.21875,6.25,796000,6.3125,6.25,4.682046413421631
14-05-1996,6.15625,6.25,1208800,6.28125,6.15625,4.611815452575684
15-05-1996,6.09375,6.1875,2372400,6.3125,6.3125,4.728867053985596
16-05-1996,6.25,6.34375,379600,6.34375,6.28125,4.705456256866455
17-05-1996,6.1875,6.25,1017600,6.28125,6.25,4.682046413421631
20-05-1996,6.25,6.25,425600,6.375,6.34375,4.7522783279418945
21-05-1996,6.3125,6.3125,2660400,6.46875,6.4375,4.822507858276367
22-05-1996,6.4375,6.4375,552000,6.5,6.5,4.869330406188965
23-05-1996,6.53125,6.5625,1154800,6.75,6.5625,4.916149616241455
24-05-1996,6.4375,6.5,1701200,6.53125,6.5,4.869330406188965
28-05-1996,6.359375,6.53125,554000,6.53125,6.4375,4.822507858276367
29-05-1996,6.3125,6.40625,613600,6.40625,6.375,4.775686740875244
30-05-1996,6.25,6.375,604000,6.375,6.3125,4.728867053985596
31-05-1996,6.25,6.34375,493200,6.375,6.3125,4.728867053985596
03-06-1996,6.28125,6.3125,211200,6.3125,6.3125,4.728867053985596
04-06-1996,6.375,6.40625,654800,6.46875,6.375,4.775686740875244
05-06-1996,6.40625,6.4375,679600,6.46875,6.4375,4.822507858276367
06-06-1996,6.25,6.4375,278800,6.4375,6.28125,4.705456256866455
07-06-1996,6.15625,6.21875,702800,6.34375,6.34375,4.7522783279418945
10-06-1996,6.3125,6.34375,241200,6.34375,6.3125,4.728867053985596
11-06-1996,6.28125,6.3125,761600,6.375,6.3125,4.728867053985596
12-06-1996,6.25,6.3125,1385200,6.3125,6.28125,4.705456256866455
13-06-1996,6.09375,6.28125,985600,6.28125,6.1875,4.635228633880615
14-06-1996,6.15625,6.1875,1093200,6.21875,6.15625,4.611815452575684
17-06-1996,6.0625,6.09375,586400,6.125,6.0625,4.5415849685668945
18-06-1996,5.96875,6.0,1450000,6.125,5.96875,4.4713544845581055
19-06-1996,6.03125,6.03125,1416800,6.15625,6.0625,4.5415849685668945
20-06-1996,6.0625,6.09375,1258400,6.125,6.09375,4.564993381500244
21-06-1996,6.0,6.09375,650800,6.09375,6.0,4.4947662353515625
24-06-1996,5.96875,6.03125,948000,6.0625,6.0,4.4947662353515625
25-06-1996,5.96875,6.03125,2754000,6.25,6.15625,4.611815452575684
26-06-1996,6.21875,6.21875,5256400,6.625,6.625,4.962970733642578
27-06-1996,6.53125,6.59375,4884000,6.75,6.75,5.056612014770508
28-06-1996,6.78125,6.8125,5409200,6.96875,6.96875,5.220485210418701
01-07-1996,6.90625,6.96875,3778800,7.28125,7.28125,5.454588890075684
02-07-1996,7.125,7.15625,2342000,7.25,7.21875,5.407763481140137
03-07-1996,7.125,7.125,1392000,7.21875,7.21875,5.407763481140137
05-07-1996,7.125,7.21875,753600,7.3125,7.28125,5.454588890075684
08-07-1996,7.1875,7.25,924800,7.3125,7.25,5.4311747550964355
09-07-1996,7.25,7.25,2440800,7.5625,7.5,5.618457317352295
10-07-1996,7.46875,7.5,3225600,7.65625,7.5625,5.665278911590576
11-07-1996,7.125,7.46875,3954400,7.59375,7.1875,5.389702796936035
12-07-1996,7.125,7.15625,1191200,7.21875,7.15625,5.366267204284668
15-07-1996,7.09375,7.125,1718400,7.34375,7.125,5.342833518981934
16-07-1996,6.5625,7.0625,1854400,7.09375,6.65625,4.991330623626709
17-07-1996,6.6875,6.6875,2270000,6.96875,6.6875,5.014762878417969
18-07-1996,6.65625,6.75,990400,6.8125,6.71875,5.0381975173950195
19-07-1996,6.65625,6.6875,1322800,6.71875,6.6875,5.014762878417969
22-07-1996,6.5625,6.6875,1101600,6.6875,6.59375,4.944463729858398
23-07-1996,6.53125,6.625,2303200,6.8125,6.8125,5.108500003814697
24-07-1996,6.625,6.75,327600,6.75,6.625,4.967897415161133
25-07-1996,6.375,6.625,762800,6.78125,6.375,4.780426502227783
26-07-1996,6.40625,6.40625,462800,6.5625,6.53125,4.897598743438721
29-07-1996,6.4375,6.5,676800,6.53125,6.5,4.874162673950195
30-07-1996,6.25,6.46875,1988800,6.53125,6.3125,4.73356294631958
31-07-1996,6.125,6.3125,1733600,6.3125,6.25,4.686696529388428
01-08-1996,6.25,6.25,1422800,6.375,6.3125,4.73356294631958
02-08-1996,6.3125,6.3125,1042800,6.46875,6.46875,4.850728988647461
05-08-1996,6.34375,6.46875,503200,6.59375,6.59375,4.944463729858398
06-08-1996,6.5,6.59375,495200,6.65625,6.65625,4.991330623626709
07-08-1996,6.75,6.75,1542800,6.84375,6.84375,5.131930828094482
08-08-1996,6.75,6.84375,767600,6.875,6.84375,5.131930828094482
09-08-1996,6.71875,6.875,634400,6.875,6.71875,5.0381975173950195
12-08-1996,6.625,6.75,167600,6.75,6.625,4.967897415161133
13-08-1996,6.625,6.65625,389600,6.6875,6.625,4.967897415161133
14-08-1996,6.625,6.625,333200,6.65625,6.65625,4.991330623626709
15-08-1996,6.625,6.625,331600,6.75,6.75,5.061633110046387
16-08-1996,6.625,6.6875,329600,6.71875,6.71875,5.0381975173950195
19-08-1996,6.625,6.65625,339200,6.78125,6.78125,5.0850653648376465
20-08-1996,6.6875,6.8125,928800,6.8125,6.75,5.061633110046387
21-08-1996,6.59375,6.71875,837600,6.71875,6.65625,4.991330623626709
22-08-1996,6.59375,6.65625,433200,6.6875,6.65625,4.991330623626709
23-08-1996,6.5625,6.59375,228800,6.65625,6.625,4.967897415161133
26-08-1996,6.5625,6.625,488000,6.65625,6.65625,4.991330623626709
27-08-1996,6.5,6.625,669600,6.625,6.5,4.874162673950195
28-08-1996,6.46875,6.5,392800,6.5,6.46875,4.850728988647461
29-08-1996,6.4375,6.46875,499200,6.5,6.46875,4.850728988647461
30-08-1996,6.375,6.4375,160800,6.46875,6.46875,4.850728988647461
03-09-1996,6.5,6.5,1298800,6.59375,6.5625,4.921032428741455
04-09-1996,6.40625,6.53125,356400,6.53125,6.46875,4.850728988647461
05-09-1996,6.375,6.4375,382800,6.5,6.4375,4.827295780181885
06-09-1996,6.3125,6.4375,2431600,6.59375,6.46875,4.850728988647461
09-09-1996,6.40625,6.46875,501200,6.53125,6.5,4.874162673950195
10-09-1996,6.46875,6.5,488400,6.53125,6.46875,4.850728988647461
11-09-1996,6.46875,6.46875,1305600,6.65625,6.5625,4.921032428741455
12-09-1996,6.28125,6.53125,1240800,6.53125,6.3125,4.73356294631958
13-09-1996,6.125,6.3125,1250400,6.3125,6.125,4.592962741851807
16-09-1996,6.03125,6.125,1839600,6.125,6.0625,4.5460944175720215
17-09-1996,5.71875,5.875,3505600,5.9375,5.875,4.405492305755615
18-09-1996,5.875,5.90625,2286800,6.09375,6.0,4.4992289543151855
19-09-1996,5.96875,5.96875,2160800,6.09375,6.03125,4.5226616859436035
20-09-1996,6.03125,6.03125,601200,6.09375,6.03125,4.5226616859436035
23-09-1996,6.0,6.0625,1021600,6.0625,6.03125,4.5226616859436035
24-09-1996,5.84375,6.0,1552000,6.0625,5.90625,4.428926944732666
25-09-1996,5.78125,5.90625,1691200,6.0,6.0,4.4992289543151855
26-09-1996,6.03125,6.03125,856400,6.15625,6.125,4.592962741851807
27-09-1996,6.0,6.0625,1036000,6.09375,6.03125,4.5226616859436035
30-09-1996,6.0,6.0,1134400,6.21875,6.21875,4.6632609367370605
01-10-1996,6.25,6.25,956400,6.3125,6.3125,4.73356294631958
02-10-1996,6.28125,6.3125,774800,6.40625,6.375,4.780426502227783
03-10-1996,6.28125,6.375,691600,6.375,6.28125,4.710126876831055
04-10-1996,6.28125,6.34375,592000,6.40625,6.28125,4.710126876831055
07-10-1996,6.25,6.28125,1552000,6.4375,6.40625,4.803861141204834
08-10-1996,6.34375,6.40625,1220000,6.46875,6.375,4.780426502227783
09-10-1996,6.25,6.375,772800,6.375,6.3125,4.73356294631958
10-10-1996,5.9375,6.21875,2254800,6.21875,6.0,4.504581451416016
11-10-1996,5.9375,6.0,1258800,6.0625,5.9375,4.4576568603515625
14-10-1996,5.8125,5.9375,2306000,5.96875,5.84375,4.387273788452148
15-10-1996,5.84375,5.875,1424800,6.0,6.0,4.504581451416016
16-10-1996,5.96875,6.0,1880000,6.09375,6.09375,4.57496452331543
17-10-1996,6.125,6.15625,1636400,6.25,6.25,4.6922712326049805
18-10-1996,6.21875,6.25,1060800,6.40625,6.375,4.78611421585083
21-10-1996,6.25,6.34375,722000,6.375,6.25,4.6922712326049805
22-10-1996,6.15625,6.25,1494400,6.3125,6.1875,4.645347595214844
23-10-1996,5.96875,6.15625,2842800,6.15625,6.0,4.504581451416016
24-10-1996,6.0,6.03125,1593200,6.09375,6.0625,4.551501750946045
25-10-1996,6.09375,6.09375,1020000,6.21875,6.21875,4.668808937072754
28-10-1996,6.09375,6.15625,995600,6.1875,6.09375,4.57496452331543
29-10-1996,6.03125,6.09375,1533600,6.15625,6.15625,4.621887683868408
30-10-1996,6.15625,6.15625,3300400,6.375,6.375,4.78611421585083
31-10-1996,6.375,6.375,1713200,6.53125,6.4375,4.83303689956665
01-11-1996,6.25,6.4375,1226800,6.46875,6.28125,4.715728759765625
04-11-1996,6.1875,6.25,1135200,6.28125,6.1875,4.645347595214844
05-11-1996,6.1875,6.25,730800,6.25,6.21875,4.668808937072754
06-11-1996,6.125,6.21875,395600,6.21875,6.125,4.5984272956848145
07-11-1996,6.0,6.0,1647200,6.0625,6.0,4.504581451416016
08-11-1996,6.0,6.0625,1212400,6.15625,6.15625,4.621887683868408
11-11-1996,6.15625,6.1875,1075600,6.28125,6.25,4.6922712326049805
12-11-1996,6.25,6.3125,1186400,6.375,6.25,4.6922712326049805
13-11-1996,6.25,6.28125,1387200,6.28125,6.28125,4.715728759765625
14-11-1996,6.28125,6.28125,2227200,6.3125,6.3125,4.739192485809326
15-11-1996,6.21875,6.28125,1321600,6.34375,6.25,4.6922712326049805
18-11-1996,6.1875,6.25,682000,6.25,6.25,4.6922712326049805
