Date,Low,Open,Volume,High,Close,Adjusted Close
17-03-1980,1.6796879768371582,0.0,164800,1.75,1.6875,0.5715177655220032
18-03-1980,1.6328129768371582,0.0,188800,1.6875,1.65625,0.5609337091445923
19-03-1980,1.6640629768371582,0.0,84800,1.6875,1.6796879768371582,0.5688716173171997
20-03-1980,1.6484379768371582,0.0,328000,1.6875,1.6875,0.5715177655220032
21-03-1980,1.6640629768371582,0.0,249600,1.6796879768371582,1.6640629768371582,0.563579797744751
24-03-1980,1.640625,0.0,142400,1.6796879768371582,1.6796879768371582,0.5688716173171997
25-03-1980,1.6640629768371582,0.0,249600,1.6875,1.6640629768371582,0.563579797744751
26-03-1980,1.6484379768371582,0.0,228800,1.6875,1.65625,0.5609337091445923
27-03-1980,1.640625,0.0,268800,1.65625,1.6484379768371582,0.5582877993583679
28-03-1980,1.6484379768371582,0.0,132800,1.671875,1.65625,0.5609337091445923
31-03-1980,1.671875,0.0,363200,1.796875,1.796875,0.6085602045059204
01-04-1980,1.75,0.0,276800,1.8046879768371582,1.765625,0.5979766845703125
02-04-1980,1.7109379768371582,0.0,86400,1.765625,1.7109379768371582,0.5794553160667419
03-04-1980,1.6953129768371582,0.0,156800,1.7265629768371582,1.71875,0.5821014046669006
07-04-1980,1.6875,0.0,195200,1.71875,1.6953129768371582,0.5741631984710693
08-04-1980,1.6875,0.0,414400,1.71875,1.7109379768371582,0.5794553160667419
09-04-1980,1.6796879768371582,0.0,432000,1.7109379768371582,1.6875,0.5715177655220032
10-04-1980,1.6796879768371582,0.0,544000,1.703125,1.6875,0.5715177655220032
11-04-1980,1.6953129768371582,0.0,372800,1.734375,1.734375,0.5873929262161255
14-04-1980,1.7265629768371582,0.0,107200,1.75,1.734375,0.5873929262161255
15-04-1980,1.7265629768371582,0.0,110400,1.75,1.7265629768371582,0.5847470164299011
16-04-1980,1.734375,0.0,316800,1.75,1.734375,0.5873929262161255
17-04-1980,1.734375,0.0,108800,1.75,1.734375,0.5873929262161255
18-04-1980,1.734375,0.0,96000,1.75,1.7421879768371582,0.5900391340255737
21-04-1980,1.734375,0.0,128000,1.7421879768371582,1.734375,0.5873929262161255
22-04-1980,1.7265629768371582,0.0,99200,1.765625,1.765625,0.5979766845703125
23-04-1980,1.765625,0.0,123200,1.796875,1.765625,0.5979766845703125
24-04-1980,1.78125,0.0,152000,1.8125,1.7890629768371582,0.6059144735336304
25-04-1980,1.7734379768371582,0.0,67200,1.8125,1.8046879768371582,0.6112064123153687
28-04-1980,1.765625,0.0,361600,1.8046879768371582,1.78125,0.6032683849334717
29-04-1980,1.7890629768371582,0.0,164800,1.8359379768371582,1.8125,0.613852322101593
30-04-1980,1.796875,0.0,152000,1.84375,1.8359379768371582,0.6217898726463318
01-05-1980,1.8203129768371582,0.0,312000,1.8671879768371582,1.859375,0.6297273635864258
02-05-1980,1.875,0.0,476800,1.953125,1.9453129768371582,0.6588329076766968
05-05-1980,1.90625,0.0,828800,1.9296879768371582,1.9296879768371582,0.6535412073135376
06-05-1980,1.8828129768371582,0.0,216000,1.90625,1.8828129768371582,0.6376656889915466
07-05-1980,1.8671879768371582,0.0,209600,1.90625,1.890625,0.6403113603591919
08-05-1980,1.8984379768371582,0.0,158400,1.9140629768371582,1.8984379768371582,0.6429574489593506
09-05-1980,1.8671879768371582,0.0,129600,1.8984379768371582,1.8671879768371582,0.6323733329772949
12-05-1980,1.8671879768371582,0.0,190400,1.875,1.8671879768371582,0.6323733329772949
13-05-1980,1.859375,0.0,70400,1.875,1.875,0.6350194215774536
14-05-1980,1.859375,0.0,129600,1.875,1.875,0.6350194215774536
15-05-1980,1.8125,0.0,240000,1.875,1.859375,0.6297273635864258
16-05-1980,1.765625,0.0,120000,1.84375,1.765625,0.5979766845703125
19-05-1980,1.765625,0.0,148800,1.7890629768371582,1.7890629768371582,0.6059144735336304
20-05-1980,1.7890629768371582,0.0,158400,1.8359379768371582,1.8359379768371582,0.6217898726463318
21-05-1980,1.8203129768371582,0.0,532800,1.8671879768371582,1.8359379768371582,0.6217898726463318
22-05-1980,1.796875,0.0,571200,1.828125,1.828125,0.6191439032554626
23-05-1980,1.796875,0.0,224000,1.828125,1.828125,0.6191439032554626
27-05-1980,1.8125,0.0,316800,1.8671879768371582,1.828125,0.6191439032554626
28-05-1980,1.8359379768371582,0.0,542400,1.8671879768371582,1.8671879768371582,0.6323733329772949
29-05-1980,1.8515629768371582,0.0,187200,1.875,1.8515629768371582,0.6270820498466492
30-05-1980,1.84375,0.0,227200,1.890625,1.890625,0.6403113603591919
02-06-1980,1.875,0.0,192000,1.90625,1.890625,0.6403113603591919
03-06-1980,1.90625,0.0,320000,1.953125,1.921875,0.6508943438529968
04-06-1980,1.921875,0.0,123200,1.953125,1.9296879768371582,0.6535412073135376
05-06-1980,1.9375,0.0,467200,2.0,1.96875,0.6667701601982117
06-06-1980,1.9375,0.0,120000,1.96875,1.9375,0.6561868786811829
09-06-1980,1.9296879768371582,0.0,83200,1.953125,1.9375,0.6561868786811829
10-06-1980,1.953125,0.0,203200,1.9921879768371582,1.9921879768371582,0.6747084856033325
11-06-1980,1.9765629768371582,0.0,70400,1.9921879768371582,1.9921879768371582,0.6747084856033325
12-06-1980,1.9609379768371582,0.0,128000,1.984375,1.96875,0.6667701601982117
13-06-1980,1.953125,0.0,176000,1.984375,1.984375,0.6720619797706604
16-06-1980,1.953125,0.0,251200,1.984375,1.9765629768371582,0.6694164276123047
17-06-1980,1.953125,0.0,155200,1.9765629768371582,1.953125,0.6614790558815002
18-06-1980,1.9453129768371582,0.0,147200,1.9609379768371582,1.9609379768371582,0.6641245484352112
19-06-1980,1.9375,0.0,187200,1.9609379768371582,1.9375,0.6561868786811829
20-06-1980,1.9375,0.0,300800,1.9609379768371582,1.953125,0.6614790558815002
23-06-1980,1.9375,0.0,128000,1.953125,1.9375,0.6561868786811829
24-06-1980,1.9375,0.0,452800,1.953125,1.9375,0.6561868786811829
25-06-1980,1.9375,0.0,142400,1.9609379768371582,1.9609379768371582,0.6641245484352112
26-06-1980,1.9296879768371582,0.0,152000,1.953125,1.9375,0.6561868786811829
27-06-1980,1.9296879768371582,0.0,737600,1.9375,1.9375,0.6561868786811829
30-06-1980,1.84375,0.0,265600,1.9375,1.875,0.6350194215774536
01-07-1980,1.84375,0.0,1777600,1.890625,1.890625,0.6403113603591919
02-07-1980,1.875,0.0,489600,1.890625,1.8828129768371582,0.6376656889915466
03-07-1980,1.890625,0.0,136000,1.921875,1.8984379768371582,0.6429574489593506
07-07-1980,1.9140629768371582,0.0,193600,1.9375,1.921875,0.6508943438529968
08-07-1980,1.9375,0.0,206400,1.953125,1.953125,0.6614790558815002
09-07-1980,1.9375,0.0,321600,1.9921879768371582,1.9921879768371582,0.6747084856033325
10-07-1980,1.96875,0.0,627200,2.023437976837158,2.0,0.6773543357849121
11-07-1980,1.984375,0.0,158400,2.015625,2.015625,0.6826460361480713
14-07-1980,2.0,0.0,190400,2.054687976837158,2.054687976837158,0.6958752870559692
15-07-1980,2.046875,0.0,291200,2.078125,2.070312976837158,0.7011675238609314
16-07-1980,2.046875,0.0,859200,2.070312976837158,2.070312976837158,0.7011675238609314
17-07-1980,2.0625,0.0,480000,2.085937976837158,2.078125,0.703813374042511
18-07-1980,2.070312976837158,0.0,652800,2.148437976837158,2.132812976837158,0.7223349213600159
21-07-1980,2.132812976837158,0.0,268800,2.15625,2.15625,0.7302727699279785
22-07-1980,2.148437976837158,0.0,350400,2.171875,2.148437976837158,0.7276265025138855
23-07-1980,2.125,0.0,280000,2.15625,2.125,0.7196884155273438
24-07-1980,2.125,0.0,332800,2.140625,2.140625,0.7249805331230164
25-07-1980,2.125,0.0,121600,2.140625,2.132812976837158,0.7223349213600159
28-07-1980,2.125,0.0,355200,2.140625,2.140625,0.7249805331230164
29-07-1980,2.132812976837158,0.0,188800,2.171875,2.171875,0.7355638742446899
30-07-1980,2.1875,0.0,1552000,2.195312976837158,2.195312976837158,0.7435024380683899
31-07-1980,2.1875,0.0,1233600,2.210937976837158,2.210937976837158,0.7487938404083252
01-08-1980,2.21875,0.0,305600,2.234375,2.226562976837158,0.7540856599807739
04-08-1980,2.21875,0.0,1603200,2.273437976837158,2.273437976837158,0.7699612975120544
05-08-1980,2.226562976837158,0.0,1168000,2.265625,2.25,0.7620233297348022
06-08-1980,2.242187976837158,0.0,254400,2.289062976837158,2.289062976837158,0.7752529978752136
07-08-1980,2.25,0.0,276800,2.273437976837158,2.257812976837158,0.7646693587303162
08-08-1980,2.257812976837158,0.0,598400,2.28125,2.273437976837158,0.7699612975120544
11-08-1980,2.25,0.0,259200,2.257812976837158,2.257812976837158,0.7646693587303162
12-08-1980,2.25,0.0,1137600,2.3125,2.273437976837158,0.7699612975120544
13-08-1980,2.257812976837158,0.0,140800,2.296875,2.265625,0.7673152089118958
14-08-1980,2.25,0.0,126400,2.265625,2.265625,0.7673152089118958
15-08-1980,2.257812976837158,0.0,195200,2.289062976837158,2.257812976837158,0.7646693587303162
18-08-1980,2.203125,0.0,299200,2.25,2.203125,0.7461477518081665
19-08-1980,2.171875,0.0,622400,2.203125,2.179687976837158,0.7382102608680725
20-08-1980,2.148437976837158,0.0,259200,2.195312976837158,2.195312976837158,0.7435024380683899
21-08-1980,2.25,0.0,745600,2.28125,2.265625,0.7673152089118958
22-08-1980,2.257812976837158,0.0,195200,2.28125,2.265625,0.7673152089118958
25-08-1980,2.25,0.0,91200,2.265625,2.25,0.7620233297348022
26-08-1980,2.25,0.0,254400,2.28125,2.265625,0.7673152089118958
27-08-1980,2.21875,0.0,336000,2.257812976837158,2.21875,0.7514398694038391
28-08-1980,2.171875,0.0,212800,2.203125,2.171875,0.7355638742446899
29-08-1980,2.15625,0.0,740800,2.1875,2.171875,0.7355638742446899
02-09-1980,2.171875,0.0,155200,2.195312976837158,2.1875,0.7408561110496521
03-09-1980,2.171875,0.0,1081600,2.265625,2.25,0.7620233297348022
04-09-1980,2.234375,0.0,416000,2.273437976837158,2.25,0.7620233297348022
05-09-1980,2.234375,0.0,731200,2.257812976837158,2.257812976837158,0.7646693587303162
08-09-1980,2.242187976837158,0.0,100800,2.265625,2.242187976837158,0.7593777179718018
09-09-1980,2.234375,0.0,91200,2.242187976837158,2.242187976837158,0.7593777179718018
10-09-1980,2.234375,0.0,83200,2.242187976837158,2.234375,0.7567313313484192
11-09-1980,2.234375,0.0,60800,2.25,2.25,0.7620233297348022
12-09-1980,2.242187976837158,0.0,128000,2.265625,2.265625,0.7673152089118958
15-09-1980,2.25,0.0,236800,2.273437976837158,2.25,0.7620233297348022
16-09-1980,2.25,0.0,96000,2.265625,2.265625,0.7673152089118958
17-09-1980,2.25,0.0,1672000,2.335937976837158,2.328125,0.7884825468063354
18-09-1980,2.335937976837158,0.0,201600,2.367187976837158,2.34375,0.7937742471694946
19-09-1980,2.335937976837158,0.0,124800,2.351562976837158,2.34375,0.7937742471694946
22-09-1980,2.34375,0.0,264000,2.359375,2.351562976837158,0.796420156955719
23-09-1980,2.335937976837158,0.0,488000,2.375,2.351562976837158,0.796420156955719
24-09-1980,2.328125,0.0,148800,2.335937976837158,2.328125,0.7884825468063354
25-09-1980,2.296875,0.0,265600,2.328125,2.304687976837158,0.7805449366569519
26-09-1980,2.273437976837158,0.0,352000,2.304687976837158,2.289062976837158,0.7752529978752136
29-09-1980,2.265625,0.0,428800,2.28125,2.28125,0.7726069092750549
30-09-1980,2.265625,0.0,124800,2.289062976837158,2.289062976837158,0.7752529978752136
01-10-1980,2.257812976837158,0.0,100800,2.28125,2.257812976837158,0.7646693587303162
02-10-1980,2.25,0.0,585600,2.273437976837158,2.273437976837158,0.7699612975120544
03-10-1980,2.265625,0.0,180800,2.289062976837158,2.28125,0.7726069092750549
06-10-1980,2.265625,0.0,121600,2.296875,2.265625,0.7673152089118958
07-10-1980,2.25,0.0,459200,2.265625,2.25,0.7620233297348022
08-10-1980,2.242187976837158,0.0,817600,2.28125,2.28125,0.7726069092750549
09-10-1980,2.25,0.0,443200,2.28125,2.265625,0.7673152089118958
10-10-1980,2.203125,0.0,796800,2.234375,2.226562976837158,0.7540856599807739
13-10-1980,2.210937976837158,0.0,97600,2.226562976837158,2.226562976837158,0.7540856599807739
14-10-1980,2.203125,0.0,224000,2.25,2.203125,0.7461477518081665
15-10-1980,2.1875,0.0,113600,2.203125,2.195312976837158,0.7435024380683899
16-10-1980,2.171875,0.0,425600,2.203125,2.1875,0.7408561110496521
17-10-1980,2.15625,0.0,300800,2.1875,2.1875,0.7408561110496521
20-10-1980,2.164062976837158,0.0,150400,2.1875,2.1875,0.7408561110496521
21-10-1980,2.1875,0.0,566400,2.25,2.25,0.7620233297348022
22-10-1980,2.210937976837158,0.0,172800,2.273437976837158,2.234375,0.7567313313484192
23-10-1980,2.234375,0.0,336000,2.265625,2.25,0.7620233297348022
24-10-1980,2.234375,0.0,168000,2.265625,2.265625,0.7673152089118958
27-10-1980,2.234375,0.0,521600,2.25,2.25,0.7620233297348022
28-10-1980,2.234375,0.0,376000,2.265625,2.257812976837158,0.7646693587303162
29-10-1980,2.25,0.0,251200,2.265625,2.265625,0.7673152089118958
30-10-1980,2.257812976837158,0.0,156800,2.273437976837158,2.265625,0.7673152089118958
31-10-1980,2.25,0.0,243200,2.265625,2.265625,0.7673152089118958
03-11-1980,2.226562976837158,0.0,1062400,2.28125,2.28125,0.7726069092750549
05-11-1980,2.273437976837158,0.0,1062400,2.359375,2.28125,0.7726069092750549
06-11-1980,2.28125,0.0,531200,2.3125,2.296875,0.7778992652893066
07-11-1980,2.28125,0.0,579200,2.296875,2.28125,0.7726069092750549
10-11-1980,2.257812976837158,0.0,180800,2.28125,2.273437976837158,0.7699612975120544
11-11-1980,2.265625,0.0,867200,2.28125,2.265625,0.7673152089118958
12-11-1980,2.25,0.0,281600,2.28125,2.273437976837158,0.7699612975120544
13-11-1980,2.257812976837158,0.0,1980800,2.28125,2.273437976837158,0.7699612975120544
14-11-1980,2.273437976837158,0.0,702400,2.304687976837158,2.304687976837158,0.7805449366569519
17-11-1980,2.289062976837158,0.0,1176000,2.34375,2.328125,0.7884825468063354
18-11-1980,2.328125,0.0,164800,2.351562976837158,2.335937976837158,0.7911285161972046
19-11-1980,2.320312976837158,0.0,241600,2.367187976837158,2.359375,0.7990663051605225
20-11-1980,2.34375,0.0,377600,2.421875,2.398437976837158,0.8122960329055786
21-11-1980,2.3125,0.0,209600,2.398437976837158,2.359375,0.7990663051605225
24-11-1980,2.296875,0.0,243200,2.382812976837158,2.34375,0.7937742471694946
25-11-1980,2.296875,0.0,179200,2.351562976837158,2.3125,0.7831907868385315
26-11-1980,2.195312976837158,0.0,377600,2.265625,2.203125,0.7461477518081665
28-11-1980,2.171875,0.0,323200,2.203125,2.1875,0.7408561110496521
01-12-1980,2.179687976837158,0.0,152000,2.203125,2.1875,0.7408561110496521
02-12-1980,2.171875,0.0,244800,2.203125,2.203125,0.7461477518081665
03-12-1980,2.1875,0.0,182400,2.25,2.25,0.7620233297348022
04-12-1980,2.21875,0.0,643200,2.265625,2.25,0.7620233297348022
05-12-1980,2.234375,0.0,235200,2.25,2.242187976837158,0.7593777179718018
08-12-1980,2.1875,0.0,385600,2.21875,2.203125,0.7461477518081665
09-12-1980,2.1875,0.0,528000,2.203125,2.1875,0.7408561110496521
10-12-1980,2.1875,0.0,206400,2.234375,2.195312976837158,0.7435024380683899
11-12-1980,2.15625,0.0,456000,2.203125,2.15625,0.7302727699279785
12-12-1980,2.148437976837158,0.0,57600,2.171875,2.15625,0.7302727699279785
15-12-1980,2.117187976837158,0.0,472000,2.148437976837158,2.117187976837158,0.7170430421829224
16-12-1980,2.046875,0.0,131200,2.101562976837158,2.0625,0.6985218524932861
17-12-1980,2.070312976837158,0.0,276800,2.101562976837158,2.085937976837158,0.7064595222473145
18-12-1980,2.0625,0.0,168000,2.078125,2.070312976837158,0.7011675238609314
19-12-1980,2.0625,0.0,504000,2.140625,2.140625,0.7249805331230164
22-12-1980,2.125,0.0,384000,2.164062976837158,2.164062976837158,0.7329182028770447
23-12-1980,2.140625,0.0,184000,2.1875,2.15625,0.7302727699279785
24-12-1980,2.132812976837158,0.0,1203200,2.242187976837158,2.242187976837158,0.7593777179718018
26-12-1980,2.226562976837158,0.0,97600,2.265625,2.25,0.7620233297348022
29-12-1980,2.234375,0.0,324800,2.304687976837158,2.265625,0.7673152089118958
30-12-1980,2.234375,0.0,1240000,2.328125,2.328125,0.7884825468063354
31-12-1980,2.320312976837158,0.0,928000,2.546875,2.546875,0.8625688552856445
02-01-1981,2.5,0.0,483200,2.546875,2.546875,0.8625688552856445
05-01-1981,2.5,0.0,1252800,2.601562976837158,2.515625,0.8519839644432068
06-01-1981,2.40625,0.0,296000,2.5,2.421875,0.8202334046363831
07-01-1981,2.25,0.0,540800,2.375,2.359375,0.7990663051605225
08-01-1981,2.21875,0.0,680000,2.367187976837158,2.296875,0.7778992652893066
09-01-1981,2.289062976837158,0.0,1307200,2.398437976837158,2.398437976837158,0.8122960329055786
12-01-1981,2.4375,0.0,1108800,2.554687976837158,2.53125,0.8572760820388794
13-01-1981,2.5,0.0,276800,2.53125,2.515625,0.8519839644432068
14-01-1981,2.5,0.0,1025600,2.578125,2.523437976837158,0.8546307682991028
15-01-1981,2.5,0.0,310400,2.53125,2.515625,0.8519839644432068
16-01-1981,2.507812976837158,0.0,820800,2.640625,2.640625,0.8943189978599548
19-01-1981,2.578125,0.0,768000,2.65625,2.625,0.8890270590782166
20-01-1981,2.640625,0.0,822400,2.671875,2.664062976837158,0.9022565484046936
21-01-1981,2.625,0.0,2556800,2.703125,2.6875,0.9101948738098145
22-01-1981,2.609375,0.0,1601600,2.765625,2.640625,0.8943189978599548
23-01-1981,2.578125,0.0,1859200,2.640625,2.625,0.8890270590782166
26-01-1981,2.5625,0.0,329600,2.601562976837158,2.5625,0.8678602576255798
27-01-1981,2.5625,0.0,753600,2.59375,2.585937976837158,0.8757984638214111
28-01-1981,2.578125,0.0,358400,2.648437976837158,2.625,0.8890270590782166
29-01-1981,2.625,0.0,262400,2.6875,2.65625,0.8996112942695618
30-01-1981,2.640625,0.0,358400,2.695312976837158,2.664062976837158,0.9022565484046936
02-02-1981,2.578125,0.0,187200,2.648437976837158,2.59375,0.8784437775611877
03-02-1981,2.578125,0.0,313600,2.640625,2.625,0.8890270590782166
04-02-1981,2.570312976837158,0.0,601600,2.65625,2.578125,0.8731518387794495
05-02-1981,2.570312976837158,0.0,201600,2.625,2.625,0.8890270590782166
06-02-1981,2.625,0.0,532800,2.71875,2.710937976837158,0.9181320667266846
09-02-1981,2.664062976837158,0.0,464000,2.71875,2.703125,0.9154859781265259
10-02-1981,2.6875,0.0,472000,2.71875,2.703125,0.9154859781265259
11-02-1981,2.65625,0.0,617600,2.703125,2.6875,0.9101948738098145
12-02-1981,2.625,0.0,196800,2.679687976837158,2.679687976837158,0.9075486660003662
13-02-1981,2.609375,0.0,156800,2.671875,2.640625,0.8943189978599548
17-02-1981,2.601562976837158,0.0,345600,2.65625,2.609375,0.8837353587150574
18-02-1981,2.5625,0.0,428800,2.640625,2.59375,0.8784437775611877
19-02-1981,2.53125,0.0,601600,2.59375,2.546875,0.8625688552856445
20-02-1981,2.539062976837158,0.0,329600,2.554687976837158,2.546875,0.8625688552856445
23-02-1981,2.546875,0.0,427200,2.585937976837158,2.585937976837158,0.8757984638214111
24-02-1981,2.59375,0.0,334400,2.632812976837158,2.625,0.8890270590782166
25-02-1981,2.609375,0.0,4424000,2.9375,2.9375,0.9948636889457703
26-02-1981,2.875,0.0,5041600,3.09375,3.046875,1.0319067239761353
27-02-1981,2.992187976837158,0.0,3398400,3.15625,3.15625,1.0689489841461182
02-03-1981,3.140625,0.0,3272000,3.234375,3.210937976837158,1.08747136592865
03-03-1981,3.09375,0.0,3803200,3.234375,3.148437976837158,1.0663037300109863
04-03-1981,3.0625,0.0,1982400,3.125,3.125,1.058365821838379
05-03-1981,2.984375,0.0,1225600,3.117187976837158,3.0,1.0160313844680786
06-03-1981,2.890625,0.0,1899200,3.039062976837158,3.03125,1.026614785194397
09-03-1981,2.96875,0.0,712000,3.0625,3.0625,1.0371986627578735
10-03-1981,2.9375,0.0,497600,3.046875,2.960937976837158,1.002801537513733
11-03-1981,2.914062976837158,0.0,1625600,2.984375,2.96875,1.0054478645324707
12-03-1981,2.9375,0.0,1329600,3.09375,3.078125,1.0424911975860596
13-03-1981,3.09375,0.0,1672000,3.140625,3.125,1.058365821838379
16-03-1981,3.0625,0.0,566400,3.140625,3.109375,1.0530741214752197
17-03-1981,3.117187976837158,0.0,2062400,3.1875,3.164062976837158,1.0715957880020142
18-03-1981,3.125,0.0,1782400,3.296875,3.21875,1.0901163816452026
19-03-1981,3.171875,0.0,648000,3.265625,3.171875,1.0742405652999878
20-03-1981,3.15625,0.0,884800,3.25,3.195312976837158,1.0821789503097534
23-03-1981,3.171875,0.0,368000,3.234375,3.21875,1.0901163816452026
24-03-1981,3.125,0.0,760000,3.25,3.179687976837158,1.0768871307373047
25-03-1981,3.171875,0.0,6833600,3.492187976837158,3.453125,1.1694939136505127
26-03-1981,3.34375,0.0,2190400,3.46875,3.34375,1.1324518918991089
27-03-1981,3.328125,0.0,1571200,3.460937976837158,3.390625,1.14832603931427
30-03-1981,3.28125,0.0,1011200,3.398437976837158,3.28125,1.111283540725708
31-03-1981,3.328125,0.0,1208000,3.398437976837158,3.382812976837158,1.1456812620162964
01-04-1981,3.335937976837158,0.0,1326400,3.4375,3.40625,1.153618335723877
02-04-1981,3.28125,0.0,723200,3.421875,3.359375,1.1377428770065308
03-04-1981,3.28125,0.0,817600,3.367187976837158,3.296875,1.1165753602981567
06-04-1981,3.3125,0.0,2217600,3.609375,3.609375,1.2224124670028687
07-04-1981,3.515625,0.0,2635200,3.640625,3.546875,1.2012454271316528
08-04-1981,3.46875,0.0,968000,3.585937976837158,3.484375,1.1800780296325684
09-04-1981,3.46875,0.0,2723200,3.5625,3.515625,1.1906616687774658
10-04-1981,3.46875,0.0,1227200,3.5625,3.5625,1.2065367698669434
13-04-1981,3.5625,0.0,1553600,3.609375,3.578125,1.211828351020813
14-04-1981,3.484375,0.0,555200,3.5625,3.5,1.1853702068328857
15-04-1981,3.4375,0.0,665600,3.507812976837158,3.492187976837158,1.1827237606048584
16-04-1981,3.476562976837158,0.0,716800,3.523437976837158,3.523437976837158,1.1933075189590454
20-04-1981,3.492187976837158,0.0,400000,3.53125,3.515625,1.1906616687774658
21-04-1981,3.296875,0.0,1460800,3.523437976837158,3.296875,1.1165753602981567
22-04-1981,3.28125,0.0,824000,3.367187976837158,3.320312976837158,1.1245136260986328
23-04-1981,3.3125,0.0,907200,3.421875,3.382812976837158,1.1456812620162964
24-04-1981,3.34375,0.0,995200,3.421875,3.40625,1.153618335723877
27-04-1981,3.375,0.0,1088000,3.453125,3.40625,1.153618335723877
28-04-1981,3.234375,0.0,592000,3.390625,3.289062976837158,1.113930344581604
29-04-1981,3.15625,0.0,633600,3.25,3.179687976837158,1.0768871307373047
30-04-1981,3.164062976837158,0.0,756800,3.210937976837158,3.1875,1.0795332193374634
01-05-1981,3.171875,0.0,1225600,3.296875,3.25,1.1007002592086792
04-05-1981,3.171875,0.0,536000,3.25,3.195312976837158,1.0821789503097534
05-05-1981,3.09375,0.0,937600,3.140625,3.101562976837158,1.0504281520843506
06-05-1981,3.109375,0.0,716800,3.15625,3.117187976837158,1.0557199716567993
07-05-1981,3.109375,0.0,876800,3.203125,3.1875,1.0795332193374634
08-05-1981,3.164062976837158,0.0,827200,3.203125,3.1875,1.0795332193374634
11-05-1981,3.101562976837158,0.0,372800,3.210937976837158,3.101562976837158,1.0504281520843506
12-05-1981,3.0625,0.0,782400,3.109375,3.078125,1.0424911975860596
13-05-1981,3.046875,0.0,374400,3.125,3.09375,1.047782301902771
14-05-1981,3.078125,0.0,1054400,3.203125,3.125,1.058365821838379
15-05-1981,3.109375,0.0,748800,3.15625,3.140625,1.0636582374572754
18-05-1981,3.117187976837158,0.0,348800,3.148437976837158,3.132812976837158,1.0610121488571167
19-05-1981,3.125,0.0,654400,3.203125,3.1875,1.0795332193374634
20-05-1981,3.203125,0.0,1464000,3.40625,3.398437976837158,1.1509730815887451
21-05-1981,3.320312976837158,0.0,801600,3.398437976837158,3.375,1.1430355310440063
22-05-1981,3.296875,0.0,388800,3.367187976837158,3.328125,1.1271593570709229
26-05-1981,3.289062976837158,0.0,444800,3.328125,3.328125,1.1271593570709229
27-05-1981,3.265625,0.0,400000,3.359375,3.273437976837158,1.108638882637024
28-05-1981,3.234375,0.0,273600,3.296875,3.234375,1.0954084396362305
29-05-1981,3.171875,0.0,212800,3.21875,3.203125,1.084824562072754
01-06-1981,3.140625,0.0,1132800,3.242187976837158,3.140625,1.0636582374572754
02-06-1981,3.0,0.0,675200,3.125,3.0625,1.0371986627578735
03-06-1981,2.9375,0.0,411200,3.046875,2.960937976837158,1.002801537513733
04-06-1981,2.945312976837158,0.0,344000,2.976562976837158,2.96875,1.0054478645324707
05-06-1981,2.921875,0.0,1054400,3.039062976837158,3.03125,1.026614785194397
08-06-1981,3.015625,0.0,347200,3.078125,3.03125,1.026614785194397
09-06-1981,3.0,0.0,750400,3.078125,3.046875,1.0319067239761353
10-06-1981,3.0,0.0,369600,3.085937976837158,3.0625,1.0371986627578735
11-06-1981,3.078125,0.0,139200,3.15625,3.15625,1.0689489841461182
12-06-1981,3.085937976837158,0.0,171200,3.140625,3.09375,1.047782301902771
15-06-1981,3.078125,0.0,233600,3.140625,3.140625,1.0636582374572754
16-06-1981,3.101562976837158,0.0,150400,3.132812976837158,3.109375,1.0530741214752197
17-06-1981,3.054687976837158,0.0,256000,3.09375,3.078125,1.0424911975860596
18-06-1981,3.007812976837158,0.0,185600,3.078125,3.015625,1.0213230848312378
19-06-1981,2.9375,0.0,196800,3.0,2.953125,1.0001553297042847
22-06-1981,2.9375,0.0,363200,2.984375,2.960937976837158,1.002801537513733
23-06-1981,2.945312976837158,0.0,195200,2.992187976837158,2.96875,1.0054478645324707
24-06-1981,2.90625,0.0,224000,2.976562976837158,2.9375,0.9948636889457703
25-06-1981,2.921875,0.0,192000,2.960937976837158,2.9375,0.9948636889457703
26-06-1981,2.828125,0.0,332800,2.929687976837158,2.875,0.9736963510513306
29-06-1981,2.875,0.0,454400,2.921875,2.914062976837158,0.9869264364242554
30-06-1981,2.914062976837158,0.0,284800,2.960937976837158,2.9375,0.9948636889457703
01-07-1981,2.921875,0.0,190400,2.953125,2.945312976837158,0.9975098967552185
02-07-1981,2.921875,0.0,67200,2.953125,2.9375,0.9948636889457703
06-07-1981,2.890625,0.0,198400,2.929687976837158,2.90625,0.9842800498008728
07-07-1981,2.796875,0.0,302400,2.898437976837158,2.804687976837158,0.9498832821846008
08-07-1981,2.742187976837158,0.0,870400,2.8125,2.765625,0.9366541504859924
09-07-1981,2.71875,0.0,662400,2.75,2.75,0.9313623905181885
10-07-1981,2.710937976837158,0.0,360000,2.757812976837158,2.71875,0.9207780957221985
13-07-1981,2.6875,0.0,428800,2.726562976837158,2.695312976837158,0.9128404259681702
14-07-1981,2.6875,0.0,577600,2.710937976837158,2.703125,0.9154859781265259
15-07-1981,2.695312976837158,0.0,2560000,2.875,2.796875,0.9472374320030212
16-07-1981,2.796875,0.0,1044800,2.835937976837158,2.835937976837158,0.960466742515564
17-07-1981,2.828125,0.0,542400,2.898437976837158,2.84375,0.9631129503250122
20-07-1981,2.75,0.0,889600,2.84375,2.765625,0.9366541504859924
21-07-1981,2.742187976837158,0.0,651200,2.8125,2.742187976837158,0.9287165403366089
22-07-1981,2.703125,0.0,379200,2.765625,2.703125,0.9154859781265259
23-07-1981,2.671875,0.0,664000,2.757812976837158,2.726562976837158,0.9234238266944885
24-07-1981,2.71875,0.0,174400,2.765625,2.75,0.9313623905181885
27-07-1981,2.71875,0.0,350400,2.78125,2.71875,0.9207780957221985
28-07-1981,2.703125,0.0,1201600,2.78125,2.78125,0.9419459700584412
29-07-1981,2.78125,0.0,1441600,2.835937976837158,2.796875,0.9472374320030212
30-07-1981,2.773437976837158,0.0,329600,2.820312976837158,2.789062976837158,0.9445919394493103
31-07-1981,2.78125,0.0,241600,2.8125,2.78125,0.9419459700584412
03-08-1981,2.773437976837158,0.0,460800,2.8125,2.796875,0.9472374320030212
04-08-1981,2.757812976837158,0.0,310400,2.8125,2.796875,0.9472374320030212
05-08-1981,2.796875,0.0,454400,2.890625,2.890625,0.9789883494377136
06-08-1981,2.859375,0.0,1337600,2.945312976837158,2.875,0.9736963510513306
07-08-1981,2.835937976837158,0.0,129600,2.890625,2.851562976837158,0.96575927734375
10-08-1981,2.835937976837158,0.0,798400,2.875,2.875,0.9736963510513306
11-08-1981,2.890625,0.0,822400,2.96875,2.953125,1.0001553297042847
12-08-1981,2.875,0.0,324800,2.984375,2.882812976837158,0.9763427376747131
13-08-1981,2.835937976837158,0.0,112000,2.875,2.859375,0.9684049487113953
14-08-1981,2.851562976837158,0.0,268800,2.929687976837158,2.90625,0.9842800498008728
17-08-1981,2.851562976837158,0.0,265600,2.921875,2.882812976837158,0.9763427376747131
18-08-1981,2.8125,0.0,1198400,2.882812976837158,2.835937976837158,0.960466742515564
19-08-1981,2.828125,0.0,326400,2.859375,2.859375,0.9684049487113953
20-08-1981,2.851562976837158,0.0,166400,2.867187976837158,2.851562976837158,0.96575927734375
21-08-1981,2.828125,0.0,675200,2.859375,2.835937976837158,0.960466742515564
24-08-1981,2.828125,0.0,747200,2.851562976837158,2.851562976837158,0.96575927734375
25-08-1981,2.835937976837158,0.0,464000,2.898437976837158,2.882812976837158,0.9763427376747131
26-08-1981,2.867187976837158,0.0,120000,2.890625,2.867187976837158,0.9710507392883301
27-08-1981,2.867187976837158,0.0,112000,2.875,2.867187976837158,0.9710507392883301
28-08-1981,2.867187976837158,0.0,248000,2.875,2.867187976837158,0.9710507392883301
31-08-1981,2.859375,0.0,196800,2.867187976837158,2.859375,0.9684049487113953
01-09-1981,2.867187976837158,0.0,342400,2.875,2.867187976837158,0.9710507392883301
02-09-1981,2.875,0.0,153600,2.898437976837158,2.882812976837158,0.9763427376747131
03-09-1981,2.859375,0.0,315200,2.890625,2.859375,0.9684049487113953
04-09-1981,2.796875,0.0,465600,2.84375,2.8125,0.9525296092033386
08-09-1981,2.65625,0.0,449600,2.789062976837158,2.695312976837158,0.9128404259681702
09-09-1981,2.664062976837158,0.0,278400,2.703125,2.6875,0.9101948738098145
10-09-1981,2.6875,0.0,217600,2.757812976837158,2.726562976837158,0.9234238266944885
11-09-1981,2.6875,0.0,230400,2.726562976837158,2.703125,0.9154859781265259
14-09-1981,2.695312976837158,0.0,393600,2.71875,2.710937976837158,0.9181320667266846
15-09-1981,2.703125,0.0,355200,2.75,2.703125,0.9154859781265259
16-09-1981,2.703125,0.0,403200,2.734375,2.734375,0.9260700941085815
17-09-1981,2.710937976837158,0.0,89600,2.734375,2.710937976837158,0.9181320667266846
18-09-1981,2.632812976837158,0.0,1006400,2.703125,2.640625,0.8943189978599548
21-09-1981,2.640625,0.0,283200,2.648437976837158,2.648437976837158,0.8969651460647583
22-09-1981,2.632812976837158,0.0,240000,2.648437976837158,2.648437976837158,0.8969651460647583
23-09-1981,2.59375,0.0,523200,2.625,2.609375,0.8837353587150574
24-09-1981,2.578125,0.0,484800,2.640625,2.59375,0.8784437775611877
25-09-1981,2.460937976837158,0.0,366400,2.59375,2.46875,0.8361088037490845
28-09-1981,2.390625,0.0,694400,2.546875,2.546875,0.8625688552856445
29-09-1981,2.5625,0.0,737600,2.625,2.5625,0.8678602576255798
30-09-1981,2.5,0.0,313600,2.554687976837158,2.515625,0.8519839644432068
01-10-1981,2.453125,0.0,964800,2.523437976837158,2.492187976837158,0.8440466523170471
02-10-1981,2.476562976837158,0.0,2206400,2.523437976837158,2.523437976837158,0.8546307682991028
05-10-1981,2.476562976837158,0.0,516800,2.53125,2.492187976837158,0.8440466523170471
06-10-1981,2.421875,0.0,513600,2.492187976837158,2.4375,0.8255255818367004
07-10-1981,2.40625,0.0,182400,2.4375,2.421875,0.8202334046363831
08-10-1981,2.40625,0.0,644800,2.460937976837158,2.453125,0.8308173418045044
09-10-1981,2.421875,0.0,329600,2.453125,2.4375,0.8255255818367004
12-10-1981,2.414062976837158,0.0,387200,2.4375,2.4375,0.8255255818367004
13-10-1981,2.421875,0.0,110400,2.445312976837158,2.429687976837158,0.8228799104690552
14-10-1981,2.421875,0.0,70400,2.4375,2.421875,0.8202334046363831
15-10-1981,2.421875,0.0,132800,2.4375,2.429687976837158,0.8228799104690552
16-10-1981,2.429687976837158,0.0,1144000,2.453125,2.429687976837158,0.8228799104690552
19-10-1981,2.414062976837158,0.0,216000,2.445312976837158,2.445312976837158,0.8281714916229248
20-10-1981,2.390625,0.0,1475200,2.421875,2.390625,0.8096498250961304
21-10-1981,2.375,0.0,419200,2.414062976837158,2.390625,0.8096498250961304
22-10-1981,2.3125,0.0,283200,2.382812976837158,2.34375,0.7937742471694946
23-10-1981,2.289062976837158,0.0,372800,2.359375,2.296875,0.7778992652893066
26-10-1981,2.289062976837158,0.0,108800,2.328125,2.304687976837158,0.7805449366569519
27-10-1981,2.304687976837158,0.0,153600,2.367187976837158,2.351562976837158,0.796420156955719
28-10-1981,2.351562976837158,0.0,648000,2.421875,2.382812976837158,0.8070037364959717
29-10-1981,2.351562976837158,0.0,318400,2.382812976837158,2.359375,0.7990663051605225
30-10-1981,2.351562976837158,0.0,491200,2.390625,2.390625,0.8096498250961304
02-11-1981,2.414062976837158,0.0,1241600,2.46875,2.4375,0.8255255818367004
03-11-1981,2.445312976837158,0.0,411200,2.53125,2.53125,0.8572760820388794
04-11-1981,2.5,0.0,1062400,2.53125,2.507812976837158,0.8493385314941406
05-11-1981,2.507812976837158,0.0,451200,2.5625,2.546875,0.8625688552856445
06-11-1981,2.515625,0.0,161600,2.570312976837158,2.5625,0.8678602576255798
09-11-1981,2.539062976837158,0.0,91200,2.570312976837158,2.570312976837158,0.8705059885978699
10-11-1981,2.59375,0.0,137600,2.617187976837158,2.59375,0.8784437775611877
11-11-1981,2.59375,0.0,331200,2.617187976837158,2.617187976837158,0.8863815069198608
12-11-1981,2.59375,0.0,236800,2.640625,2.609375,0.8837353587150574
13-11-1981,2.53125,0.0,358400,2.59375,2.554687976837158,0.8652144074440002
16-11-1981,2.453125,0.0,284800,2.53125,2.476562976837158,0.8387550115585327
17-11-1981,2.46875,0.0,500800,2.5,2.492187976837158,0.8440466523170471
18-11-1981,2.46875,0.0,926400,2.5,2.46875,0.8361088037490845
19-11-1981,2.460937976837158,0.0,518400,2.484375,2.476562976837158,0.8387550115585327
20-11-1981,2.476562976837158,0.0,86400,2.5,2.5,0.8466925621032715
23-11-1981,2.445312976837158,0.0,190400,2.492187976837158,2.460937976837158,0.833463191986084
24-11-1981,2.445312976837158,0.0,150400,2.46875,2.460937976837158,0.833463191986084
25-11-1981,2.445312976837158,0.0,1275200,2.484375,2.453125,0.8308173418045044
27-11-1981,2.453125,0.0,196800,2.476562976837158,2.476562976837158,0.8387550115585327
30-11-1981,2.460937976837158,0.0,275200,2.53125,2.515625,0.8519839644432068
01-12-1981,2.453125,0.0,657600,2.523437976837158,2.484375,0.8414003252983093
02-12-1981,2.445312976837158,0.0,364800,2.507812976837158,2.484375,0.8414003252983093
03-12-1981,2.476562976837158,0.0,422400,2.515625,2.515625,0.8519839644432068
04-12-1981,2.5,0.0,1816000,2.53125,2.515625,0.8519839644432068
07-12-1981,2.46875,0.0,400000,2.53125,2.492187976837158,0.8440466523170471
08-12-1981,2.460937976837158,0.0,201600,2.492187976837158,2.46875,0.8361088037490845
09-12-1981,2.460937976837158,0.0,347200,2.492187976837158,2.484375,0.8414003252983093
10-12-1981,2.460937976837158,0.0,403200,2.5,2.492187976837158,0.8440466523170471
11-12-1981,2.484375,0.0,281600,2.515625,2.515625,0.8519839644432068
14-12-1981,2.4375,0.0,860800,2.492187976837158,2.453125,0.8308173418045044
15-12-1981,2.390625,0.0,264000,2.453125,2.445312976837158,0.8281714916229248
16-12-1981,2.4375,0.0,113600,2.453125,2.445312976837158,0.8281714916229248
17-12-1981,2.4375,0.0,363200,2.453125,2.4375,0.8255255818367004
18-12-1981,2.421875,0.0,209600,2.445312976837158,2.421875,0.8202334046363831
21-12-1981,2.375,0.0,670400,2.4375,2.375,0.804358184337616
22-12-1981,2.359375,0.0,240000,2.390625,2.375,0.804358184337616
23-12-1981,2.351562976837158,0.0,388800,2.382812976837158,2.375,0.804358184337616
24-12-1981,2.367187976837158,0.0,520000,2.382812976837158,2.382812976837158,0.8070037364959717
28-12-1981,2.3125,0.0,1014400,2.375,2.3125,0.7831907868385315
29-12-1981,2.3125,0.0,248000,2.328125,2.3125,0.7831907868385315
30-12-1981,2.3125,0.0,195200,2.335937976837158,2.328125,0.7884825468063354
31-12-1981,2.21875,0.0,580800,2.375,2.359375,0.7990663051605225
04-01-1982,2.335937976837158,0.0,728000,2.367187976837158,2.367187976837158,0.8017122149467468
05-01-1982,2.296875,0.0,278400,2.359375,2.328125,0.7884825468063354
06-01-1982,2.289062976837158,0.0,336000,2.328125,2.328125,0.7884825468063354
07-01-1982,2.28125,0.0,408000,2.335937976837158,2.296875,0.7778992652893066
08-01-1982,2.257812976837158,0.0,228800,2.3125,2.265625,0.7673152089118958
11-01-1982,2.1875,0.0,5382400,2.265625,2.1875,0.7408561110496521
12-01-1982,2.15625,0.0,358400,2.210937976837158,2.203125,0.7461477518081665
13-01-1982,2.171875,0.0,507200,2.21875,2.1875,0.7408561110496521
14-01-1982,2.15625,0.0,177600,2.179687976837158,2.179687976837158,0.7382102608680725
15-01-1982,2.140625,0.0,291200,2.1875,2.15625,0.7302727699279785
18-01-1982,2.0,0.0,10244800,2.132812976837158,2.0625,0.6985218524932861
19-01-1982,2.039062976837158,0.0,312000,2.085937976837158,2.054687976837158,0.6958752870559692
20-01-1982,2.023437976837158,0.0,492800,2.0625,2.046875,0.6932292580604553
21-01-1982,2.023437976837158,0.0,321600,2.046875,2.046875,0.6932292580604553
22-01-1982,2.0,0.0,1499200,2.03125,2.03125,0.6879377365112305
25-01-1982,2.0,0.0,403200,2.03125,2.015625,0.6826460361480713
26-01-1982,1.96875,0.0,1643200,2.015625,2.0,0.6773543357849121
27-01-1982,1.9921879768371582,0.0,345600,2.007812976837158,2.007812976837158,0.6800001859664917
28-01-1982,1.9921879768371582,0.0,492800,2.039062976837158,2.039062976837158,0.690583348274231
29-01-1982,2.0625,0.0,1184000,2.09375,2.085937976837158,0.7064595222473145
01-02-1982,2.03125,0.0,243200,2.078125,2.046875,0.6932292580604553
02-02-1982,2.007812976837158,0.0,283200,2.0625,2.0625,0.6985218524932861
03-02-1982,2.039062976837158,0.0,523200,2.070312976837158,2.070312976837158,0.7011675238609314
04-02-1982,2.046875,0.0,222400,2.078125,2.078125,0.703813374042511
05-02-1982,2.070312976837158,0.0,353600,2.148437976837158,2.148437976837158,0.7276265025138855
08-02-1982,2.078125,0.0,721600,2.125,2.078125,0.703813374042511
09-02-1982,2.015625,0.0,203200,2.046875,2.039062976837158,0.690583348274231
10-02-1982,2.015625,0.0,596800,2.039062976837158,2.039062976837158,0.690583348274231
11-02-1982,1.9296879768371582,0.0,480000,2.039062976837158,1.953125,0.6614790558815002
12-02-1982,1.9375,0.0,304000,1.9765629768371582,1.9765629768371582,0.6694164276123047
16-02-1982,1.9375,0.0,512000,1.984375,1.984375,0.6720619797706604
17-02-1982,1.9609379768371582,0.0,233600,2.0,1.9765629768371582,0.6694164276123047
18-02-1982,1.9375,0.0,363200,1.9765629768371582,1.9765629768371582,0.6694164276123047
19-02-1982,1.9453129768371582,0.0,192000,1.984375,1.96875,0.6667701601982117
22-02-1982,1.9375,0.0,1331200,2.023437976837158,1.9453129768371582,0.6588329076766968
23-02-1982,1.9453129768371582,0.0,182400,1.96875,1.9609379768371582,0.6641245484352112
24-02-1982,1.921875,0.0,2142400,1.9609379768371582,1.953125,0.6614790558815002
25-02-1982,1.953125,0.0,889600,1.9765629768371582,1.953125,0.6614790558815002
26-02-1982,1.9453129768371582,0.0,939200,1.96875,1.9609379768371582,0.6641245484352112
01-03-1982,1.9375,0.0,419200,1.96875,1.9375,0.6561868786811829
02-03-1982,1.921875,0.0,336000,1.953125,1.9296879768371582,0.6535412073135376
03-03-1982,1.890625,0.0,409600,1.9296879768371582,1.90625,0.6456030607223511
04-03-1982,1.8828129768371582,0.0,235200,1.921875,1.890625,0.6403113603591919
05-03-1982,1.875,0.0,265600,1.90625,1.875,0.6350194215774536
08-03-1982,1.84375,0.0,560000,1.8828129768371582,1.84375,0.6244361400604248
09-03-1982,1.8125,0.0,1928000,1.8515629768371582,1.828125,0.6191439032554626
10-03-1982,1.8203129768371582,0.0,656000,1.859375,1.859375,0.6297273635864258
11-03-1982,1.84375,0.0,712000,1.9375,1.9375,0.6561868786811829
12-03-1982,1.90625,0.0,336000,1.9609379768371582,1.9609379768371582,0.6641245484352112
15-03-1982,1.9453129768371582,0.0,176000,2.0,1.9921879768371582,0.6747084856033325
16-03-1982,1.9765629768371582,0.0,998400,2.007812976837158,2.007812976837158,0.6800001859664917
17-03-1982,1.96875,0.0,952000,2.023437976837158,2.0,0.6773543357849121
18-03-1982,1.9375,0.0,616000,2.0,1.96875,0.6667701601982117
19-03-1982,1.9375,0.0,812800,1.96875,1.96875,0.6667701601982117
22-03-1982,1.9375,0.0,342400,1.96875,1.9609379768371582,0.6641245484352112
23-03-1982,1.9609379768371582,0.0,1097600,2.015625,1.9921879768371582,0.6747084856033325
24-03-1982,2.0,0.0,291200,2.03125,2.015625,0.6826460361480713
25-03-1982,1.96875,0.0,1993600,2.0,1.9921879768371582,0.6747084856033325
26-03-1982,1.953125,0.0,265600,1.9921879768371582,1.9609379768371582,0.6641245484352112
29-03-1982,1.9609379768371582,0.0,44800,1.984375,1.984375,0.6720619797706604
30-03-1982,1.9765629768371582,0.0,248000,2.007812976837158,1.9921879768371582,0.6747084856033325
31-03-1982,1.96875,0.0,72000,1.984375,1.9765629768371582,0.6694164276123047
01-04-1982,1.96875,0.0,228800,2.0,2.0,0.6773543357849121
02-04-1982,1.9765629768371582,0.0,385600,2.015625,2.007812976837158,0.6800001859664917
05-04-1982,2.0,0.0,372800,2.03125,2.007812976837158,0.6800001859664917
06-04-1982,2.007812976837158,0.0,211200,2.023437976837158,2.015625,0.6826460361480713
07-04-1982,2.007812976837158,0.0,254400,2.03125,2.03125,0.6879377365112305
08-04-1982,2.015625,0.0,155200,2.046875,2.023437976837158,0.6852919459342957
12-04-1982,2.007812976837158,0.0,131200,2.039062976837158,2.023437976837158,0.6852919459342957
13-04-1982,2.023437976837158,0.0,312000,2.046875,2.039062976837158,0.690583348274231
14-04-1982,2.023437976837158,0.0,408000,2.054687976837158,2.054687976837158,0.6958752870559692
15-04-1982,2.0,0.0,2214400,2.054687976837158,2.007812976837158,0.6800001859664917
16-04-1982,1.984375,0.0,672000,2.015625,2.0,0.6773543357849121
19-04-1982,1.9921879768371582,0.0,412800,2.015625,2.015625,0.6826460361480713
20-04-1982,2.0,0.0,228800,2.015625,2.015625,0.6826460361480713
21-04-1982,2.0,0.0,352000,2.03125,2.015625,0.6826460361480713
22-04-1982,2.0,0.0,467200,2.03125,2.015625,0.6826460361480713
23-04-1982,2.007812976837158,0.0,787200,2.054687976837158,2.054687976837158,0.6958752870559692
26-04-1982,2.070312976837158,0.0,516800,2.117187976837158,2.117187976837158,0.7170430421829224
27-04-1982,2.109375,0.0,404800,2.15625,2.117187976837158,0.7170430421829224
28-04-1982,2.117187976837158,0.0,116800,2.148437976837158,2.125,0.7196884155273438
29-04-1982,2.078125,0.0,249600,2.125,2.085937976837158,0.7064595222473145
30-04-1982,2.046875,0.0,862400,2.132812976837158,2.132812976837158,0.7223349213600159
03-05-1982,2.09375,0.0,3374400,2.164062976837158,2.15625,0.7302727699279785
04-05-1982,2.101562976837158,0.0,3448000,2.15625,2.117187976837158,0.7170430421829224
05-05-1982,2.09375,0.0,745600,2.140625,2.117187976837158,0.7170430421829224
06-05-1982,2.101562976837158,0.0,491200,2.140625,2.109375,0.714397132396698
07-05-1982,2.09375,0.0,235200,2.125,2.109375,0.714397132396698
10-05-1982,2.09375,0.0,78400,2.125,2.101562976837158,0.7117510437965393
11-05-1982,2.101562976837158,0.0,164800,2.140625,2.132812976837158,0.7223349213600159
12-05-1982,2.117187976837158,0.0,316800,2.171875,2.140625,0.7249805331230164
13-05-1982,2.0625,0.0,2137600,2.148437976837158,2.078125,0.703813374042511
14-05-1982,2.0625,0.0,3348800,2.109375,2.109375,0.714397132396698
17-05-1982,2.09375,0.0,280000,2.125,2.109375,0.714397132396698
18-05-1982,2.101562976837158,0.0,369600,2.125,2.109375,0.714397132396698
19-05-1982,2.109375,0.0,539200,2.15625,2.125,0.7196884155273438
20-05-1982,2.101562976837158,0.0,315200,2.140625,2.140625,0.7249805331230164
21-05-1982,2.09375,0.0,737600,2.140625,2.125,0.7196884155273438
24-05-1982,2.09375,0.0,81600,2.125,2.101562976837158,0.7117510437965393
25-05-1982,2.070312976837158,0.0,195200,2.109375,2.085937976837158,0.7064595222473145
26-05-1982,2.070312976837158,0.0,376000,2.09375,2.070312976837158,0.7011675238609314
27-05-1982,2.015625,0.0,241600,2.070312976837158,2.070312976837158,0.7011675238609314
28-05-1982,2.054687976837158,0.0,100800,2.085937976837158,2.078125,0.703813374042511
01-06-1982,1.96875,0.0,196800,2.085937976837158,1.984375,0.6720619797706604
02-06-1982,1.984375,0.0,427200,2.03125,2.03125,0.6879377365112305
03-06-1982,2.0,0.0,928000,2.078125,2.015625,0.6826460361480713
04-06-1982,1.921875,0.0,1617600,2.0,1.9375,0.6561868786811829
07-06-1982,1.9140629768371582,0.0,307200,1.953125,1.921875,0.6508943438529968
08-06-1982,1.890625,0.0,337600,1.921875,1.8984379768371582,0.6429574489593506
09-06-1982,1.828125,0.0,2569600,1.890625,1.8359379768371582,0.6217898726463318
10-06-1982,1.8203129768371582,0.0,107200,1.875,1.8671879768371582,0.6323733329772949
11-06-1982,1.8984379768371582,0.0,646400,1.9140629768371582,1.9140629768371582,0.648249626159668
14-06-1982,1.890625,0.0,726400,1.921875,1.921875,0.6508943438529968
15-06-1982,1.890625,0.0,846400,1.921875,1.921875,0.6508943438529968
16-06-1982,1.921875,0.0,409600,1.9453129768371582,1.9375,0.6561868786811829
17-06-1982,1.90625,0.0,161600,1.9296879768371582,1.9296879768371582,0.6535412073135376
18-06-1982,1.90625,0.0,121600,1.9453129768371582,1.921875,0.6508943438529968
21-06-1982,1.8828129768371582,0.0,140800,1.921875,1.8984379768371582,0.6429574489593506
22-06-1982,1.8828129768371582,0.0,100800,1.90625,1.90625,0.6456030607223511
23-06-1982,1.9140629768371582,0.0,182400,1.9609379768371582,1.953125,0.6614790558815002
24-06-1982,1.953125,0.0,635200,1.9921879768371582,1.9609379768371582,0.6641245484352112
25-06-1982,1.9453129768371582,0.0,168000,1.984375,1.9765629768371582,0.6694164276123047
28-06-1982,1.984375,0.0,752000,2.023437976837158,2.0,0.6773543357849121
29-06-1982,2.0,0.0,566400,2.09375,2.09375,0.7091045379638672
30-06-1982,2.03125,0.0,728000,2.085937976837158,2.078125,0.703813374042511
01-07-1982,2.0625,0.0,1262400,2.085937976837158,2.085937976837158,0.7064595222473145
02-07-1982,2.070312976837158,0.0,228800,2.078125,2.078125,0.703813374042511
06-07-1982,2.046875,0.0,910400,2.085937976837158,2.046875,0.6932292580604553
07-07-1982,2.0,0.0,244800,2.0625,2.0,0.6773543357849121
08-07-1982,2.0,0.0,256000,2.046875,2.039062976837158,0.690583348274231
09-07-1982,2.039062976837158,0.0,971200,2.0625,2.0625,0.6985218524932861
12-07-1982,2.046875,0.0,321600,2.09375,2.0625,0.6985218524932861
13-07-1982,2.046875,0.0,1595200,2.070312976837158,2.046875,0.6932292580604553
14-07-1982,2.0,0.0,80000,2.03125,2.015625,0.6826460361480713
15-07-1982,2.0,0.0,219200,2.046875,2.03125,0.6879377365112305
16-07-1982,2.0,0.0,1366400,2.03125,2.023437976837158,0.6852919459342957
19-07-1982,2.03125,0.0,1960000,2.0625,2.046875,0.6932292580604553
20-07-1982,2.046875,0.0,907200,2.09375,2.085937976837158,0.7064595222473145
21-07-1982,2.09375,0.0,1259200,2.179687976837158,2.171875,0.7355638742446899
22-07-1982,2.164062976837158,0.0,206400,2.21875,2.203125,0.7461477518081665
23-07-1982,2.171875,0.0,185600,2.226562976837158,2.1875,0.7408561110496521
26-07-1982,2.1875,0.0,324800,2.242187976837158,2.242187976837158,0.7593777179718018
27-07-1982,2.210937976837158,0.0,184000,2.226562976837158,2.226562976837158,0.7540856599807739
28-07-1982,2.132812976837158,0.0,358400,2.21875,2.140625,0.7249805331230164
29-07-1982,2.109375,0.0,401600,2.203125,2.203125,0.7461477518081665
30-07-1982,2.195312976837158,0.0,336000,2.226562976837158,2.226562976837158,0.7540856599807739
02-08-1982,2.21875,0.0,564800,2.28125,2.273437976837158,0.7699612975120544
03-08-1982,2.234375,0.0,1036800,2.28125,2.25,0.7620233297348022
04-08-1982,2.140625,0.0,4504000,2.203125,2.148437976837158,0.7276265025138855
05-08-1982,2.09375,0.0,241600,2.140625,2.117187976837158,0.7170430421829224
06-08-1982,2.03125,0.0,753600,2.117187976837158,2.03125,0.6879377365112305
09-08-1982,2.007812976837158,0.0,225600,2.054687976837158,2.054687976837158,0.6958752870559692
10-08-1982,2.046875,0.0,363200,2.078125,2.078125,0.703813374042511
11-08-1982,2.070312976837158,0.0,219200,2.085937976837158,2.078125,0.703813374042511
12-08-1982,2.070312976837158,0.0,756800,2.101562976837158,2.085937976837158,0.7064595222473145
13-08-1982,2.085937976837158,0.0,801600,2.117187976837158,2.109375,0.714397132396698
16-08-1982,2.101562976837158,0.0,670400,2.132812976837158,2.117187976837158,0.7170430421829224
17-08-1982,2.125,0.0,614400,2.179687976837158,2.179687976837158,0.7382102608680725
18-08-1982,2.25,0.0,2147200,2.34375,2.296875,0.7778992652893066
19-08-1982,2.28125,0.0,1566400,2.3125,2.3125,0.7831907868385315
20-08-1982,2.328125,0.0,1852800,2.484375,2.4375,0.8255255818367004
23-08-1982,2.414062976837158,0.0,1672000,2.5,2.421875,0.8202334046363831
24-08-1982,2.375,0.0,1491200,2.4375,2.40625,0.8149417042732239
25-08-1982,2.375,0.0,1664000,2.507812976837158,2.4375,0.8255255818367004
26-08-1982,2.40625,0.0,1835200,2.53125,2.445312976837158,0.8281714916229248
27-08-1982,2.375,0.0,1766400,2.453125,2.40625,0.8149417042732239
30-08-1982,2.40625,0.0,1560000,2.515625,2.515625,0.8519839644432068
31-08-1982,2.53125,0.0,1078400,2.59375,2.53125,0.8572760820388794
01-09-1982,2.515625,0.0,611200,2.5625,2.515625,0.8519839644432068
02-09-1982,2.390625,0.0,681600,2.523437976837158,2.476562976837158,0.8387550115585327
03-09-1982,2.492187976837158,0.0,932800,2.554687976837158,2.539062976837158,0.8599220514297485
07-09-1982,2.53125,0.0,1057600,2.5625,2.546875,0.8625688552856445
08-09-1982,2.53125,0.0,369600,2.554687976837158,2.53125,0.8572760820388794
09-09-1982,2.53125,0.0,905600,2.554687976837158,2.53125,0.8572760820388794
10-09-1982,2.445312976837158,0.0,1099200,2.53125,2.484375,0.8414003252983093
13-09-1982,2.40625,0.0,2040000,2.492187976837158,2.484375,0.8414003252983093
14-09-1982,2.476562976837158,0.0,827200,2.539062976837158,2.484375,0.8414003252983093
15-09-1982,2.453125,0.0,534400,2.515625,2.515625,0.8519839644432068
16-09-1982,2.460937976837158,0.0,1214400,2.53125,2.492187976837158,0.8440466523170471
17-09-1982,2.445312976837158,0.0,1208000,2.515625,2.46875,0.8361088037490845
20-09-1982,2.4375,0.0,584000,2.492187976837158,2.492187976837158,0.8440466523170471
21-09-1982,2.476562976837158,0.0,1401600,2.515625,2.515625,0.8519839644432068
22-09-1982,2.578125,0.0,2398400,2.617187976837158,2.585937976837158,0.8757984638214111
23-09-1982,2.539062976837158,0.0,457600,2.5625,2.5625,0.8678602576255798
24-09-1982,2.53125,0.0,444800,2.5625,2.5625,0.8678602576255798
27-09-1982,2.53125,0.0,627200,2.5625,2.546875,0.8625688552856445
28-09-1982,2.546875,0.0,1088000,2.59375,2.546875,0.8625688552856445
29-09-1982,2.5,0.0,868800,2.5625,2.5,0.8466925621032715
30-09-1982,2.421875,0.0,380800,2.484375,2.460937976837158,0.833463191986084
01-10-1982,2.445312976837158,0.0,617600,2.5,2.5,0.8466925621032715
04-10-1982,2.476562976837158,0.0,1147200,2.515625,2.507812976837158,0.8493385314941406
05-10-1982,2.5,0.0,1032000,2.53125,2.515625,0.8519839644432068
06-10-1982,2.515625,0.0,1368000,2.570312976837158,2.5625,0.8678602576255798
07-10-1982,2.5625,0.0,841600,2.625,2.609375,0.8837353587150574
08-10-1982,2.578125,0.0,324800,2.609375,2.59375,0.8784437775611877
11-10-1982,2.585937976837158,0.0,542400,2.640625,2.617187976837158,0.8863815069198608
12-10-1982,2.625,0.0,1148800,2.679687976837158,2.679687976837158,0.9075486660003662
13-10-1982,2.671875,0.0,668800,2.84375,2.828125,0.9578205347061157
14-10-1982,2.65625,0.0,795200,2.84375,2.65625,0.8996112942695618
15-10-1982,2.59375,0.0,521600,2.65625,2.632812976837158,0.8916735649108887
18-10-1982,2.648437976837158,0.0,326400,2.734375,2.734375,0.9260700941085815
19-10-1982,2.75,0.0,448000,2.8125,2.804687976837158,0.9498832821846008
20-10-1982,2.8125,0.0,1268800,2.9375,2.875,0.9736963510513306
21-10-1982,2.914062976837158,0.0,7321600,3.023437976837158,2.96875,1.0054478645324707
22-10-1982,3.046875,0.0,2614400,3.140625,3.070312976837158,1.0398439168930054
25-10-1982,2.875,0.0,764800,3.0625,2.890625,0.9789883494377136
26-10-1982,2.828125,0.0,988800,2.921875,2.921875,0.9895720481872559
27-10-1982,2.984375,0.0,780800,3.070312976837158,3.070312976837158,1.0398439168930054
28-10-1982,3.054687976837158,0.0,1020800,3.085937976837158,3.0625,1.0371986627578735
29-10-1982,2.96875,0.0,1156800,3.070312976837158,3.007812976837158,1.018676996231079
01-11-1982,2.945312976837158,0.0,1216000,3.007812976837158,3.0,1.0160313844680786
02-11-1982,2.976562976837158,0.0,1259200,3.039062976837158,3.015625,1.0213230848312378
03-11-1982,3.015625,0.0,1827200,3.179687976837158,3.15625,1.0689489841461182
04-11-1982,3.234375,0.0,2828800,3.351562976837158,3.25,1.1007002592086792
05-11-1982,3.09375,0.0,1425600,3.335937976837158,3.335937976837158,1.1298060417175293
08-11-1982,3.1875,0.0,732800,3.304687976837158,3.273437976837158,1.108638882637024
09-11-1982,3.21875,0.0,1198400,3.296875,3.21875,1.0901163816452026
10-11-1982,3.21875,0.0,739200,3.273437976837158,3.234375,1.0954084396362305
11-11-1982,3.15625,0.0,705600,3.21875,3.164062976837158,1.0715957880020142
12-11-1982,3.164062976837158,0.0,312000,3.203125,3.171875,1.0742405652999878
15-11-1982,3.03125,0.0,1032000,3.171875,3.0625,1.0371986627578735
16-11-1982,3.015625,0.0,918400,3.09375,3.0625,1.0371986627578735
17-11-1982,3.078125,0.0,1840000,3.140625,3.109375,1.0530741214752197
18-11-1982,3.09375,0.0,504000,3.148437976837158,3.140625,1.0636582374572754
19-11-1982,3.109375,0.0,796800,3.1875,3.109375,1.0530741214752197
22-11-1982,3.078125,0.0,769600,3.210937976837158,3.078125,1.0424911975860596
23-11-1982,2.921875,0.0,617600,3.125,2.921875,0.9895720481872559
24-11-1982,2.9375,0.0,529600,3.0625,3.039062976837158,1.0292611122131348
26-11-1982,3.054687976837158,0.0,344000,3.125,3.109375,1.0530741214752197
29-11-1982,3.117187976837158,0.0,272000,3.171875,3.140625,1.0636582374572754
30-11-1982,3.109375,0.0,496000,3.171875,3.140625,1.0636582374572754
01-12-1982,3.1875,0.0,611200,3.234375,3.203125,1.084824562072754
02-12-1982,3.203125,0.0,649600,3.28125,3.234375,1.0954084396362305
03-12-1982,3.1875,0.0,412800,3.25,3.21875,1.0901163816452026
06-12-1982,3.21875,0.0,459200,3.265625,3.25,1.1007002592086792
07-12-1982,3.25,0.0,1816000,3.3125,3.265625,1.105992317199707
08-12-1982,3.21875,0.0,244800,3.28125,3.21875,1.0901163816452026
09-12-1982,3.15625,0.0,126400,3.1875,3.15625,1.0689489841461182
10-12-1982,3.078125,0.0,145600,3.179687976837158,3.09375,1.047782301902771
13-12-1982,2.984375,0.0,572800,3.0625,3.0,1.0160313844680786
14-12-1982,3.0,0.0,286400,3.078125,3.0,1.0160313844680786
15-12-1982,2.96875,0.0,160000,3.0,2.976562976837158,1.008094072341919
16-12-1982,2.882812976837158,0.0,1177600,2.96875,2.945312976837158,0.9975098967552185
17-12-1982,3.015625,0.0,291200,3.09375,3.09375,1.047782301902771
20-12-1982,3.046875,0.0,868800,3.09375,3.078125,1.0424911975860596
21-12-1982,3.078125,0.0,160000,3.109375,3.109375,1.0530741214752197
22-12-1982,3.109375,0.0,694400,3.234375,3.234375,1.0954084396362305
23-12-1982,3.265625,0.0,291200,3.3125,3.28125,1.111283540725708
27-12-1982,3.109375,0.0,803200,3.28125,3.210937976837158,1.08747136592865
28-12-1982,3.203125,0.0,744000,3.328125,3.296875,1.1165753602981567
29-12-1982,3.234375,0.0,473600,3.304687976837158,3.28125,1.111283540725708
30-12-1982,3.265625,0.0,315200,3.3125,3.265625,1.105992317199707
31-12-1982,3.210937976837158,0.0,145600,3.25,3.234375,1.0954084396362305
03-01-1983,3.140625,0.0,499200,3.171875,3.15625,1.0689489841461182
04-01-1983,3.140625,0.0,353600,3.21875,3.21875,1.0901163816452026
05-01-1983,3.234375,0.0,515200,3.296875,3.257812976837158,1.103346586227417
06-01-1983,3.265625,0.0,1033600,3.46875,3.421875,1.1589105129241943
07-01-1983,3.421875,0.0,2430400,3.609375,3.570312976837158,1.209184169769287
10-01-1983,3.46875,0.0,899200,3.539062976837158,3.5,1.1853702068328857
11-01-1983,3.453125,0.0,830400,3.515625,3.5,1.1853702068328857
12-01-1983,3.359375,0.0,593600,3.5,3.359375,1.1377428770065308
13-01-1983,3.265625,0.0,724800,3.390625,3.382812976837158,1.1456812620162964
14-01-1983,3.28125,0.0,454400,3.40625,3.40625,1.153618335723877
17-01-1983,3.382812976837158,0.0,652800,3.414062976837158,3.390625,1.14832603931427
18-01-1983,3.375,0.0,288000,3.484375,3.484375,1.1800780296325684
19-01-1983,3.375,0.0,1323200,3.492187976837158,3.453125,1.1694939136505127
20-01-1983,3.328125,0.0,425600,3.429687976837158,3.359375,1.1377428770065308
21-01-1983,3.257812976837158,0.0,241600,3.359375,3.28125,1.111283540725708
24-01-1983,3.15625,0.0,656000,3.242187976837158,3.21875,1.0901163816452026
25-01-1983,3.171875,0.0,332800,3.296875,3.21875,1.0901163816452026
26-01-1983,3.21875,0.0,328000,3.265625,3.234375,1.0954084396362305
27-01-1983,3.265625,0.0,484800,3.40625,3.359375,1.1377428770065308
28-01-1983,3.375,0.0,462400,3.429687976837158,3.40625,1.153618335723877
31-01-1983,3.40625,0.0,1908800,3.445312976837158,3.429687976837158,1.1615567207336426
01-02-1983,3.375,0.0,1342400,3.453125,3.375,1.1430355310440063
02-02-1983,3.34375,0.0,249600,3.398437976837158,3.375,1.1430355310440063
03-02-1983,3.351562976837158,0.0,200000,3.40625,3.390625,1.14832603931427
04-02-1983,3.34375,0.0,1100800,3.421875,3.40625,1.153618335723877
07-02-1983,3.390625,0.0,1614400,3.460937976837158,3.421875,1.1589105129241943
08-02-1983,3.359375,0.0,667200,3.421875,3.375,1.1430355310440063
09-02-1983,3.3125,0.0,299200,3.375,3.367187976837158,1.1403895616531372
10-02-1983,3.375,0.0,784000,3.40625,3.40625,1.153618335723877
11-02-1983,3.390625,0.0,768000,3.414062976837158,3.40625,1.153618335723877
14-02-1983,3.390625,0.0,532800,3.40625,3.390625,1.14832603931427
15-02-1983,3.328125,0.0,1260800,3.390625,3.34375,1.1324518918991089
16-02-1983,3.34375,0.0,881600,3.398437976837158,3.375,1.1430355310440063
17-02-1983,3.34375,0.0,2440000,3.421875,3.390625,1.14832603931427
18-02-1983,3.375,0.0,846400,3.421875,3.375,1.1430355310440063
22-02-1983,3.375,0.0,1120000,3.40625,3.398437976837158,1.1509730815887451
23-02-1983,3.34375,0.0,1406400,3.398437976837158,3.398437976837158,1.1509730815887451
24-02-1983,3.414062976837158,0.0,2683200,3.5625,3.5625,1.2065367698669434
25-02-1983,3.53125,0.0,2368000,3.601562976837158,3.539062976837158,1.1985994577407837
28-02-1983,3.578125,0.0,1920000,3.625,3.617187976837158,1.2250587940216064
01-03-1983,3.625,0.0,1411200,3.703125,3.6875,1.2488722801208496
02-03-1983,3.695312976837158,0.0,1604800,3.75,3.742187976837158,1.2673933506011963
03-03-1983,3.71875,0.0,1451200,3.765625,3.71875,1.2594547271728516
04-03-1983,3.671875,0.0,840000,3.734375,3.703125,1.2541637420654297
07-03-1983,3.703125,0.0,425600,3.734375,3.71875,1.2594547271728516
08-03-1983,3.65625,0.0,1718400,3.734375,3.65625,1.2382878065109253
09-03-1983,3.640625,0.0,366400,3.6875,3.671875,1.2435792684555054
10-03-1983,3.6875,0.0,595200,3.726562976837158,3.6875,1.2488722801208496
11-03-1983,3.671875,0.0,548800,3.695312976837158,3.695312976837158,1.2515182495117188
14-03-1983,3.671875,0.0,542400,3.734375,3.726562976837158,1.2621017694473267
15-03-1983,3.695312976837158,0.0,740800,3.726562976837158,3.726562976837158,1.2621017694473267
16-03-1983,3.734375,0.0,1308800,3.757812976837158,3.75,1.2700388431549072
17-03-1983,3.75,0.0,859200,3.828125,3.8125,1.2912061214447021
18-03-1983,3.8125,0.0,1619200,4.0,3.984375,1.3494162559509277
21-03-1983,3.875,0.0,937600,3.976562976837158,3.90625,1.3229581117630005
22-03-1983,3.90625,0.0,1076800,3.96875,3.9375,1.3335403203964233
23-03-1983,3.921875,0.0,940800,3.960937976837158,3.921875,1.3282488584518433
24-03-1983,3.875,0.0,536000,3.929687976837158,3.890625,1.317665457725525
25-03-1983,3.859375,0.0,564800,3.898437976837158,3.875,1.3123737573623657
28-03-1983,3.859375,0.0,416000,3.898437976837158,3.890625,1.317665457725525
29-03-1983,3.859375,0.0,576000,3.890625,3.859375,1.307081937789917
30-03-1983,3.789062976837158,0.0,403200,3.867187976837158,3.820312976837158,1.2938523292541504
31-03-1983,3.835937976837158,0.0,547200,3.875,3.84375,1.3017886877059937
04-04-1983,3.84375,0.0,168000,3.875,3.859375,1.307081937789917
05-04-1983,3.84375,0.0,947200,3.875,3.859375,1.307081937789917
06-04-1983,3.8125,3.84375,960000,3.859375,3.84375,1.3017886877059937
07-04-1983,3.828125,3.859375,464000,3.859375,3.84375,1.3017886877059937
08-04-1983,3.75,3.84375,219200,3.84375,3.765625,1.2753310203552246
11-04-1983,3.75,3.765625,387200,3.796875,3.765625,1.2753310203552246
12-04-1983,3.78125,3.796875,313600,3.828125,3.828125,1.2964988946914673
13-04-1983,3.84375,3.84375,401600,3.90625,3.90625,1.3229581117630005
14-04-1983,3.914062976837158,3.9375,316800,3.953125,3.9375,1.3335403203964233
15-04-1983,3.914062976837158,3.953125,286400,3.960937976837158,3.914062976837158,1.3256033658981323
18-04-1983,3.888672113418579,3.914062976837158,337600,3.929687976837158,3.929687976837158,1.3308953046798706
19-04-1983,3.898437976837158,3.929687976837158,494400,3.976562976837158,3.976562976837158,1.3467708826065063
20-04-1983,3.96875,3.976562976837158,198400,3.992187976837158,3.984375,1.3494162559509277
21-04-1983,3.953125,3.984375,465600,4.015625,3.953125,1.3388322591781616
22-04-1983,3.9375,3.960937976837158,182400,4.0,3.953125,1.3388322591781616
25-04-1983,3.90625,3.953125,468800,4.0,3.96875,1.3441239595413208
26-04-1983,3.96875,3.992187976837158,272000,4.015625,4.0,1.3547086715698242
27-04-1983,4.0,4.046875,387200,4.09375,4.023437976837158,1.362645149230957
28-04-1983,4.015625,4.03125,571200,4.046875,4.039062976837158,1.3679380416870117
29-04-1983,4.039062976837158,4.0625,619200,4.085937976837158,4.085937976837158,1.3838136196136475
02-05-1983,4.046875,4.085937976837158,670400,4.117187976837158,4.054687976837158,1.373229742050171
03-05-1983,4.0,4.023437976837158,428800,4.039062976837158,4.039062976837158,1.3679380416870117
04-05-1983,3.976562976837158,4.007812976837158,451200,4.03125,3.992187976837158,1.3645217418670654
05-05-1983,3.921875,3.96875,740800,4.007812976837158,3.9375,1.3458291292190552
06-05-1983,3.953125,3.953125,803200,4.078125,4.046875,1.3832135200500488
09-05-1983,4.0,4.015625,553600,4.0625,4.054687976837158,1.385884165763855
10-05-1983,4.03125,4.070312976837158,492800,4.070312976837158,4.03125,1.3778727054595947
11-05-1983,4.0,4.039062976837158,252800,4.046875,4.023437976837158,1.37520170211792
12-05-1983,3.96875,4.023437976837158,396800,4.03125,3.976562976837158,1.3591811656951904
13-05-1983,3.960937976837158,3.992187976837158,225600,3.992187976837158,3.984375,1.3618509769439697
16-05-1983,3.9375,3.96875,356800,4.0,4.0,1.3671921491622925
17-05-1983,3.976562976837158,4.0,288000,4.015625,4.015625,1.3725321292877197
18-05-1983,4.007812976837158,4.007812976837158,825600,4.140625,4.03125,1.3778727054595947
19-05-1983,3.921875,3.984375,1417600,3.984375,3.953125,1.351170301437378
20-05-1983,3.9375,3.953125,321600,4.007812976837158,4.007812976837158,1.3698621988296509
23-05-1983,4.007812976837158,4.015625,488000,4.0625,4.039062976837158,1.3805437088012695
24-05-1983,4.046875,4.046875,355200,4.117187976837158,4.117187976837158,1.4072463512420654
25-05-1983,4.078125,4.09375,580800,4.117187976837158,4.109375,1.4045754671096802
26-05-1983,4.078125,4.09375,1388800,4.25,4.203125,1.436619520187378
27-05-1983,4.15625,4.203125,209600,4.203125,4.164062976837158,1.423268437385559
31-05-1983,4.078125,4.164062976837158,601600,4.171875,4.09375,1.3992350101470947
01-06-1983,4.0625,4.0625,488000,4.101562976837158,4.101562976837158,1.401906132698059
02-06-1983,3.984375,4.109375,366400,4.117187976837158,4.03125,1.3778727054595947
03-06-1983,3.96875,4.015625,1065600,4.046875,4.03125,1.3778727054595947
06-06-1983,4.054687976837158,4.0625,5444800,4.078125,4.070312976837158,1.3912242650985718
07-06-1983,4.03125,4.085937976837158,457600,4.085937976837158,4.046875,1.3832135200500488
08-06-1983,4.007812976837158,4.046875,444800,4.054687976837158,4.007812976837158,1.3698621988296509
09-06-1983,3.984375,4.015625,427200,4.023437976837158,4.007812976837158,1.3698621988296509
10-06-1983,4.015625,4.023437976837158,1878400,4.0625,4.0625,1.388554334640503
13-06-1983,4.0625,4.0625,1062400,4.09375,4.078125,1.393893837928772
14-06-1983,4.078125,4.078125,272000,4.109375,4.109375,1.4045754671096802
15-06-1983,4.101562976837158,4.109375,592000,4.125,4.117187976837158,1.4072463512420654
16-06-1983,4.125,4.125,628800,4.15625,4.15625,1.4205981492996216
17-06-1983,4.125,4.15625,1081600,4.164062976837158,4.125,1.4099173545837402
20-06-1983,4.101562976837158,4.109375,222400,4.140625,4.117187976837158,1.4072463512420654
21-06-1983,4.046875,4.101562976837158,340800,4.117187976837158,4.09375,1.3992350101470947
22-06-1983,4.0625,4.085937976837158,435200,4.109375,4.09375,1.3992350101470947
23-06-1983,4.070312976837158,4.09375,145600,4.109375,4.070312976837158,1.3912242650985718
24-06-1983,4.0625,4.070312976837158,212800,4.09375,4.09375,1.3992350101470947
27-06-1983,4.0625,4.070312976837158,609600,4.085937976837158,4.078125,1.393893837928772
28-06-1983,4.046875,4.09375,428800,4.109375,4.046875,1.3832135200500488
29-06-1983,3.9375,4.039062976837158,1552000,4.039062976837158,3.9375,1.3458291292190552
30-06-1983,3.921875,3.9375,534400,3.984375,3.96875,1.356510043144226
01-07-1983,3.953125,3.953125,947200,4.023437976837158,4.023437976837158,1.37520170211792
05-07-1983,3.96875,4.007812976837158,155200,4.007812976837158,3.992187976837158,1.3645217418670654
06-07-1983,3.9375,3.96875,217600,3.992187976837158,3.984375,1.3618509769439697
07-07-1983,3.921875,3.984375,452800,3.984375,3.96875,1.356510043144226
08-07-1983,3.960937976837158,3.96875,152000,3.984375,3.984375,1.3618509769439697
11-07-1983,3.976562976837158,3.984375,395200,3.992187976837158,3.976562976837158,1.3591811656951904
12-07-1983,3.90625,3.976562976837158,569600,3.976562976837158,3.90625,1.3351491689682007
13-07-1983,3.859375,3.890625,291200,3.921875,3.867187976837158,1.3217958211898804
14-07-1983,3.875,3.90625,419200,3.9375,3.898437976837158,1.3324778079986572
15-07-1983,3.8125,3.90625,329600,3.914062976837158,3.828125,1.3084461688995361
18-07-1983,3.78125,3.804687976837158,827200,3.828125,3.8125,1.3031047582626343
19-07-1983,3.796875,3.804687976837158,497600,3.820312976837158,3.8125,1.3031047582626343
20-07-1983,3.8125,3.8125,633600,3.875,3.875,1.324467658996582
21-07-1983,4.0,4.03125,681600,4.03125,4.0,1.3671921491622925
22-07-1983,4.015625,4.070312976837158,747200,4.125,4.125,1.4099173545837402
25-07-1983,4.148437976837158,4.148437976837158,441600,4.210937976837158,4.210937976837158,1.4392905235290527
26-07-1983,4.21875,4.21875,814400,4.3125,4.3125,1.4740042686462402
27-07-1983,4.1875,4.3125,531200,4.3125,4.195312976837158,1.4339487552642822
28-07-1983,4.0625,4.203125,384000,4.210937976837158,4.085937976837158,1.3965654373168945
29-07-1983,3.953125,4.03125,771200,4.054687976837158,3.992187976837158,1.3645217418670654
01-08-1983,3.867187976837158,3.90625,1000000,3.921875,3.914062976837158,1.3378188610076904
02-08-1983,3.90625,3.9375,254400,3.953125,3.914062976837158,1.3378188610076904
03-08-1983,3.84375,3.890625,656000,3.90625,3.875,1.324467658996582
04-08-1983,3.65625,3.796875,812800,3.84375,3.710937976837158,1.2816208600997925
05-08-1983,3.6875,3.6875,881600,3.757812976837158,3.734375,1.2897146940231323
08-08-1983,3.703125,3.703125,472000,3.828125,3.734375,1.2897146940231323
09-08-1983,3.65625,3.765625,2072000,3.765625,3.671875,1.268129825592041
10-08-1983,3.5,3.640625,1752000,3.640625,3.53125,1.2195632457733154
11-08-1983,3.5,3.53125,923200,3.609375,3.5625,1.2303553819656372
12-08-1983,3.578125,3.59375,320000,3.65625,3.632812976837158,1.2546393871307373
15-08-1983,3.664062976837158,3.664062976837158,304000,3.765625,3.75,1.295111060142517
16-08-1983,3.632812976837158,3.75,900800,3.75,3.671875,1.268129825592041
17-08-1983,3.65625,3.65625,868800,3.75,3.734375,1.2897146940231323
18-08-1983,3.703125,3.765625,305600,3.796875,3.710937976837158,1.2816208600997925
19-08-1983,3.703125,3.71875,187200,3.742187976837158,3.734375,1.2897146940231323
22-08-1983,3.734375,3.742187976837158,1060800,3.8125,3.742187976837158,1.2924131155014038
23-08-1983,3.75,3.773437976837158,288000,3.8125,3.789062976837158,1.308601975440979
24-08-1983,3.726562976837158,3.765625,225600,3.765625,3.734375,1.2897146940231323
25-08-1983,3.710937976837158,3.71875,550400,3.8125,3.804687976837158,1.3139983415603638
26-08-1983,3.8125,3.8125,433600,3.90625,3.90625,1.3490742444992065
29-08-1983,3.882812976837158,3.921875,259200,3.960937976837158,3.945312976837158,1.362565040588379
30-08-1983,3.953125,3.953125,1729600,4.070312976837158,4.0,1.3814523220062256
31-08-1983,3.96875,3.96875,924800,3.984375,3.984375,1.376055359840393
01-09-1983,3.96875,3.96875,502400,4.0625,4.046875,1.3976409435272217
02-09-1983,4.046875,4.0625,310400,4.125,4.125,1.4246225357055664
06-09-1983,4.15625,4.171875,457600,4.203125,4.1875,1.44620680809021
07-09-1983,4.21875,4.21875,1228800,4.335937976837158,4.335937976837158,1.4974721670150757
08-09-1983,4.320312976837158,4.34375,628800,4.375,4.359375,1.5055673122406006
09-09-1983,4.28125,4.359375,2353600,4.375,4.28125,1.4785844087600708
12-09-1983,4.25,4.296875,604800,4.375,4.257812976837158,1.4704911708831787
13-09-1983,4.125,4.265625,381600,4.265625,4.1875,1.44620680809021
14-09-1983,4.15625,4.21875,126400,4.21875,4.203125,1.4516037702560425
15-09-1983,4.1875,4.203125,356800,4.21875,4.21875,1.4570002555847168
16-09-1983,4.0625,4.1875,581600,4.1875,4.09375,1.4138292074203491
19-09-1983,4.09375,4.125,172800,4.21875,4.171875,1.4408116340637207
20-09-1983,4.140625,4.140625,395200,4.25,4.25,1.4677927494049072
21-09-1983,4.203125,4.25,999200,4.46875,4.46875,1.5433398485183716
22-09-1983,4.375,4.46875,1304000,4.46875,4.4375,1.5325493812561035
23-09-1983,4.40625,4.421875,452800,4.546875,4.546875,1.5703222751617432
26-09-1983,4.46875,4.546875,338400,4.578125,4.484375,1.5487374067306519
27-09-1983,4.4375,4.5,402400,4.53125,4.5,1.5541338920593262
28-09-1983,4.453125,4.46875,150400,4.53125,4.453125,1.5379449129104614
29-09-1983,4.34375,4.4375,211200,4.5,4.34375,1.500170111656189
30-09-1983,4.09375,4.28125,1076800,4.28125,4.109375,1.4192256927490234
03-10-1983,4.015625,4.109375,313600,4.109375,4.109375,1.4192256927490234
04-10-1983,4.078125,4.078125,366400,4.265625,4.234375,1.4623969793319702
05-10-1983,4.15625,4.1875,376000,4.25,4.25,1.4677927494049072
06-10-1983,4.21875,4.25,899200,4.390625,4.34375,1.500170111656189
07-10-1983,4.5625,4.5625,759200,4.625,4.609375,1.5919076204299927
10-10-1983,4.515625,4.5625,546400,4.5625,4.515625,1.5595293045043945
11-10-1983,4.5,4.5625,453600,4.59375,4.5,1.5541338920593262
12-10-1983,4.46875,4.5,406400,4.578125,4.5625,1.5757187604904175
13-10-1983,4.5625,4.625,558400,4.65625,4.578125,1.5811150074005127
14-10-1983,4.515625,4.5625,148000,4.609375,4.546875,1.5703222751617432
17-10-1983,4.375,4.53125,324000,4.53125,4.40625,1.521755576133728
18-10-1983,4.375,4.515625,324000,4.53125,4.40625,1.521755576133728
19-10-1983,4.375,4.421875,2216000,4.5625,4.40625,1.521755576133728
20-10-1983,4.40625,4.4375,604800,4.53125,4.46875,1.5433398485183716
21-10-1983,4.453125,4.453125,1336000,4.5625,4.53125,1.5649257898330688
24-10-1983,4.5,4.53125,313600,4.578125,4.5625,1.5757187604904175
25-10-1983,4.53125,4.5625,668800,4.59375,4.546875,1.5703222751617432
26-10-1983,4.453125,4.546875,351200,4.578125,4.515625,1.5595293045043945
27-10-1983,4.484375,4.5,41600,4.5625,4.484375,1.5487374067306519
28-10-1983,4.484375,4.484375,607200,4.53125,4.5,1.5541338920593262
31-10-1983,4.515625,4.53125,478400,4.59375,4.5625,1.5757187604904175
01-11-1983,4.4375,4.578125,793600,4.578125,4.46875,1.5433398485183716
02-11-1983,4.453125,4.46875,877600,4.5625,4.546875,1.5703222751617432
03-11-1983,4.453125,4.53125,236000,4.53125,4.46875,1.5570383071899414
04-11-1983,4.34375,4.375,336800,4.453125,4.34375,1.5134855508804321
07-11-1983,4.25,4.375,408000,4.40625,4.28125,1.491708755493164
08-11-1983,4.203125,4.28125,435200,4.28125,4.203125,1.464486837387085
09-11-1983,4.203125,4.234375,176800,4.28125,4.25,1.480818271636963
10-11-1983,4.1875,4.25,495200,4.28125,4.203125,1.464486837387085
11-11-1983,4.21875,4.234375,1606400,4.3125,4.3125,1.5025968551635742
14-11-1983,4.328125,4.328125,616000,4.4375,4.375,1.5243725776672363
15-11-1983,4.34375,4.359375,920800,4.390625,4.34375,1.5134855508804321
16-11-1983,4.296875,4.3125,454400,4.40625,4.40625,1.5352617502212524
17-11-1983,4.359375,4.359375,792000,4.421875,4.390625,1.5298173427581787
18-11-1983,4.328125,4.359375,531200,4.390625,4.390625,1.5298173427581787
21-11-1983,4.375,4.421875,281600,4.4375,4.40625,1.5352617502212524
22-11-1983,4.40625,4.4375,636800,4.5625,4.53125,1.5788151025772095
23-11-1983,4.546875,4.546875,619200,4.65625,4.578125,1.5951480865478516
25-11-1983,4.59375,4.625,273600,4.625,4.59375,1.6005922555923462
28-11-1983,4.53125,4.59375,770400,4.625,4.5625,1.5897032022476196
29-11-1983,4.4375,4.5625,1019200,4.5625,4.4375,1.5461502075195312
30-11-1983,4.46875,4.5,844000,4.546875,4.515625,1.5733710527420044
01-12-1983,4.484375,4.484375,309600,4.546875,4.5,1.5679266452789307
02-12-1983,4.46875,4.46875,124800,4.5625,4.546875,1.5842591524124146
05-12-1983,4.4375,4.515625,754400,4.515625,4.5,1.5679266452789307
06-12-1983,4.46875,4.515625,184000,4.515625,4.46875,1.5570383071899414
07-12-1983,4.4375,4.4375,735200,4.5,4.4375,1.5461502075195312
08-12-1983,4.40625,4.46875,628800,4.46875,4.4375,1.5461502075195312
09-12-1983,4.40625,4.40625,500000,4.453125,4.4375,1.5461502075195312
12-12-1983,4.390625,4.390625,120000,4.4375,4.390625,1.5298173427581787
13-12-1983,4.375,4.40625,100000,4.453125,4.40625,1.5352617502212524
14-12-1983,4.34375,4.375,1194400,4.40625,4.34375,1.5134855508804321
15-12-1983,4.25,4.25,192800,4.3125,4.265625,1.4862631559371948
16-12-1983,4.1875,4.265625,640800,4.28125,4.234375,1.4753754138946533
19-12-1983,4.203125,4.203125,1264000,4.375,4.296875,1.4971520900726318
20-12-1983,4.28125,4.28125,405600,4.375,4.296875,1.4971520900726318
21-12-1983,4.21875,4.296875,792800,4.3125,4.3125,1.5025968551635742
22-12-1983,4.25,4.3125,403200,4.34375,4.25,1.480818271636963
23-12-1983,4.203125,4.203125,127200,4.25,4.21875,1.4699312448501587
27-12-1983,4.234375,4.234375,384800,4.328125,4.328125,1.5080410242080688
28-12-1983,4.25,4.3125,1399200,4.328125,4.296875,1.4971520900726318
29-12-1983,4.296875,4.3125,188800,4.4375,4.4375,1.5461502075195312
30-12-1983,4.34375,4.46875,563200,4.46875,4.359375,1.5189292430877686
03-01-1984,4.328125,4.328125,460000,4.453125,4.34375,1.5134855508804321
04-01-1984,4.3125,4.328125,1320800,4.375,4.34375,1.5134855508804321
05-01-1984,4.34375,4.375,1296000,4.609375,4.5625,1.5897032022476196
06-01-1984,4.53125,4.59375,693600,4.625,4.59375,1.6005922555923462
09-01-1984,4.578125,4.59375,900800,4.75,4.671875,1.6278128623962402
10-01-1984,4.578125,4.703125,532000,4.71875,4.578125,1.5951480865478516
11-01-1984,4.5,4.5625,502400,4.609375,4.578125,1.5951480865478516
12-01-1984,4.46875,4.53125,204000,4.5625,4.5,1.5679266452789307
13-01-1984,4.3125,4.4375,294400,4.4375,4.375,1.5243725776672363
16-01-1984,4.3125,4.34375,391200,4.421875,4.421875,1.5407055616378784
17-01-1984,4.375,4.421875,351200,4.4375,4.421875,1.5407055616378784
18-01-1984,4.34375,4.421875,552800,4.4375,4.375,1.5243725776672363
19-01-1984,4.40625,4.40625,529600,4.46875,4.4375,1.5461502075195312
20-01-1984,4.453125,4.484375,268000,4.484375,4.453125,1.5515937805175781
23-01-1984,4.296875,4.4375,2306400,4.4375,4.296875,1.4971520900726318
24-01-1984,4.21875,4.296875,504800,4.328125,4.21875,1.4699312448501587
25-01-1984,4.1875,4.25,560800,4.296875,4.21875,1.4699312448501587
26-01-1984,4.0625,4.15625,846400,4.1875,4.15625,1.4481548070907593
27-01-1984,4.09375,4.125,588800,4.1875,4.125,1.437266230583191
30-01-1984,3.96875,4.078125,643200,4.078125,4.0,1.3937129974365234
31-01-1984,3.96875,4.0,533600,4.09375,4.0,1.3937129974365234
01-02-1984,3.8125,4.0,642400,4.0625,3.96875,1.3828240633010864
02-02-1984,3.859375,3.921875,502400,3.953125,3.875,1.350159764289856
03-02-1984,3.90625,3.90625,748800,4.0,3.9375,1.3719360828399658
06-02-1984,3.859375,3.890625,1136800,3.96875,3.9375,1.3719360828399658
07-02-1984,3.875,3.921875,891200,3.953125,3.953125,1.3773798942565918
08-02-1984,3.921875,4.03125,405600,4.0625,3.9375,1.3719360828399658
09-02-1984,3.8125,3.921875,765600,3.96875,3.84375,1.3392704725265503
10-02-1984,3.71875,3.84375,756000,3.875,3.78125,1.31749427318573
13-02-1984,3.71875,3.796875,352000,3.796875,3.765625,1.312049388885498
14-02-1984,3.625,3.78125,989600,3.78125,3.75,1.3206340074539185
15-02-1984,3.59375,3.75,422400,3.75,3.625,1.2766127586364746
16-02-1984,3.546875,3.671875,396800,3.6875,3.625,1.2766127586364746
17-02-1984,3.421875,3.625,993600,3.640625,3.46875,1.2215864658355713
21-02-1984,3.4375,3.484375,616000,3.5,3.484375,1.2270886898040771
22-02-1984,3.4375,3.484375,3064800,3.609375,3.578125,1.2601052522659302
23-02-1984,3.4375,3.578125,684000,3.578125,3.546875,1.2491004467010498
24-02-1984,3.53125,3.5625,696000,3.625,3.59375,1.2656073570251465
27-02-1984,3.640625,3.671875,732800,3.8125,3.78125,1.331639289855957
28-02-1984,3.625,3.78125,644800,3.78125,3.65625,1.2876176834106445
29-02-1984,3.65625,3.65625,277600,3.796875,3.734375,1.3151311874389648
01-03-1984,3.6875,3.75,355200,3.8125,3.78125,1.331639289855957
02-03-1984,3.6875,3.75,1381600,3.8125,3.78125,1.331639289855957
05-03-1984,3.71875,3.8125,566400,3.90625,3.71875,1.3096293210983276
06-03-1984,3.71875,3.75,408800,3.8125,3.765625,1.3261363506317139
07-03-1984,3.6875,3.71875,195200,3.8125,3.75,1.3206340074539185
08-03-1984,3.65625,3.734375,291200,3.765625,3.71875,1.3096293210983276
09-03-1984,3.65625,3.75,484000,3.75,3.65625,1.2876176834106445
12-03-1984,3.671875,3.671875,291200,3.796875,3.75,1.3206340074539185
13-03-1984,3.78125,3.78125,470400,3.875,3.8125,1.3426446914672852
14-03-1984,3.78125,3.8125,1076000,3.859375,3.8125,1.3426446914672852
15-03-1984,3.78125,3.8125,289600,3.859375,3.8125,1.3426446914672852
16-03-1984,3.890625,3.90625,772000,3.9375,3.921875,1.381162405014038
19-03-1984,3.8125,3.890625,313600,3.890625,3.859375,1.35915207862854
20-03-1984,3.796875,3.828125,220800,3.859375,3.859375,1.35915207862854
21-03-1984,3.828125,3.828125,252800,3.9375,3.875,1.3646552562713623
22-03-1984,3.78125,3.90625,209600,3.90625,3.828125,1.3481463193893433
23-03-1984,3.75,3.8125,304800,3.84375,3.78125,1.331639289855957
26-03-1984,3.75,3.78125,122400,3.8125,3.796875,1.3371416330337524
27-03-1984,3.75,3.765625,103200,3.8125,3.796875,1.3371416330337524
28-03-1984,3.78125,3.796875,248800,3.828125,3.8125,1.3426446914672852
29-03-1984,3.765625,3.828125,260800,3.828125,3.796875,1.3371416330337524
30-03-1984,3.71875,3.796875,354400,3.8125,3.796875,1.3371416330337524
02-04-1984,3.640625,3.765625,433600,3.796875,3.640625,1.2821155786514282
03-04-1984,3.625,3.640625,559200,3.71875,3.6875,1.29862380027771
04-04-1984,3.65625,3.65625,249600,3.71875,3.703125,1.304126262664795
05-04-1984,3.65625,3.703125,140800,3.71875,3.703125,1.304126262664795
06-04-1984,3.640625,3.671875,188000,3.6875,3.65625,1.2876176834106445
09-04-1984,3.5,3.6875,860800,3.71875,3.515625,1.2380942106246948
10-04-1984,3.453125,3.5,480800,3.53125,3.453125,1.2160836458206177
11-04-1984,3.390625,3.4375,2084800,3.453125,3.4375,1.2105813026428223
12-04-1984,3.484375,3.484375,885600,3.578125,3.546875,1.2491004467010498
13-04-1984,3.4375,3.578125,2246400,3.59375,3.484375,1.2270886898040771
16-04-1984,3.421875,3.5,888800,3.5,3.46875,1.2215864658355713
17-04-1984,3.484375,3.5,1244800,3.546875,3.5,1.2325915098190308
18-04-1984,3.5,3.515625,1323200,3.53125,3.515625,1.2380942106246948
19-04-1984,3.5,3.53125,290400,3.578125,3.5625,1.2546021938323975
23-04-1984,3.546875,3.59375,242400,3.609375,3.5625,1.2546021938323975
24-04-1984,3.484375,3.53125,612800,3.609375,3.5,1.2325915098190308
25-04-1984,3.515625,3.53125,840800,3.59375,3.5625,1.2546021938323975
26-04-1984,3.59375,3.59375,1172800,3.75,3.703125,1.304126262664795
27-04-1984,3.703125,3.734375,596800,3.8125,3.75,1.3206340074539185
30-04-1984,3.703125,3.75,315200,3.796875,3.78125,1.331639289855957
01-05-1984,3.78125,3.796875,473600,3.84375,3.84375,1.3536502122879028
02-05-1984,3.78125,3.859375,392800,3.875,3.859375,1.35915207862854
03-05-1984,3.78125,3.890625,353600,3.890625,3.828125,1.3481463193893433
04-05-1984,3.59375,3.78125,682400,3.796875,3.65625,1.3029340505599976
07-05-1984,3.65625,3.71875,988000,3.75,3.75,1.3363431692123413
08-05-1984,3.71875,3.75,811200,3.828125,3.8125,1.3586150407791138
09-05-1984,3.765625,3.8125,752000,3.875,3.78125,1.3474788665771484
10-05-1984,3.734375,3.78125,208800,3.78125,3.78125,1.3474788665771484
11-05-1984,3.5625,3.78125,575200,3.78125,3.703125,1.3196386098861694
14-05-1984,3.578125,3.71875,273600,3.71875,3.625,1.2917977571487427
15-05-1984,3.5625,3.625,702400,3.640625,3.578125,1.275093674659729
16-05-1984,3.453125,3.5625,1334400,3.5625,3.5625,1.269525408744812
17-05-1984,3.46875,3.53125,1342400,3.5625,3.46875,1.236116647720337
18-05-1984,3.40625,3.453125,908800,3.5,3.421875,1.2194126844406128
21-05-1984,3.390625,3.40625,536800,3.46875,3.421875,1.2194126844406128
22-05-1984,3.28125,3.421875,1011200,3.421875,3.34375,1.191572666168213
23-05-1984,3.34375,3.359375,583200,3.421875,3.390625,1.2082767486572266
24-05-1984,3.296875,3.375,1495200,3.40625,3.34375,1.191572666168213
25-05-1984,3.28125,3.375,728000,3.40625,3.3125,1.1804364919662476
29-05-1984,3.1875,3.34375,768000,3.359375,3.25,1.1581640243530273
30-05-1984,3.125,3.28125,3813600,3.28125,3.15625,1.124755620956421
31-05-1984,3.09375,3.109375,1299200,3.171875,3.125,1.113619089126587
01-06-1984,3.171875,3.1875,1281600,3.234375,3.203125,1.1414597034454346
04-06-1984,3.21875,3.21875,2139200,3.46875,3.375,1.2027082443237305
05-06-1984,3.28125,3.40625,825600,3.40625,3.34375,1.191572666168213
06-06-1984,3.40625,3.40625,440000,3.46875,3.46875,1.236116647720337
07-06-1984,3.46875,3.46875,6442400,3.515625,3.515625,1.252821683883667
08-06-1984,3.484375,3.53125,396800,3.546875,3.53125,1.2583895921707153
11-06-1984,3.515625,3.5625,323200,3.5625,3.53125,1.2583895921707153
12-06-1984,3.453125,3.484375,284000,3.5,3.5,1.247253179550171
13-06-1984,3.484375,3.5,260800,3.53125,3.515625,1.252821683883667
14-06-1984,3.421875,3.5,861600,3.515625,3.453125,1.2305487394332886
15-06-1984,3.375,3.453125,334400,3.484375,3.40625,1.2138450145721436
18-06-1984,3.375,3.375,472000,3.484375,3.46875,1.236116647720337
19-06-1984,3.4375,3.5,385600,3.5,3.484375,1.2416852712631226
20-06-1984,3.375,3.453125,2826400,3.46875,3.46875,1.236116647720337
21-06-1984,3.421875,3.46875,983200,3.46875,3.453125,1.2305487394332886
22-06-1984,3.390625,3.453125,839200,3.453125,3.453125,1.2305487394332886
25-06-1984,3.453125,3.484375,1771200,3.515625,3.46875,1.236116647720337
26-06-1984,3.46875,3.5,2021600,3.546875,3.46875,1.236116647720337
27-06-1984,3.375,3.4375,542400,3.46875,3.4375,1.2249815464019775
28-06-1984,3.390625,3.4375,572000,3.4375,3.4375,1.2249815464019775
29-06-1984,3.4375,3.4375,1027200,3.484375,3.484375,1.2416852712631226
02-07-1984,3.453125,3.53125,511200,3.53125,3.484375,1.2416852712631226
03-07-1984,3.46875,3.5,676000,3.59375,3.5625,1.269525408744812
05-07-1984,3.5,3.5625,293600,3.578125,3.546875,1.2639573812484741
06-07-1984,3.484375,3.53125,331200,3.65625,3.546875,1.2639573812484741
09-07-1984,3.578125,3.59375,264000,3.625,3.625,1.2917977571487427
10-07-1984,3.65625,3.65625,552800,3.78125,3.71875,1.325206995010376
11-07-1984,3.65625,3.71875,184000,3.75,3.6875,1.3140699863433838
12-07-1984,3.5625,3.625,382400,3.6875,3.625,1.2917977571487427
13-07-1984,3.546875,3.65625,687200,3.6875,3.609375,1.286230444908142
16-07-1984,3.546875,3.609375,436000,3.65625,3.625,1.2917977571487427
17-07-1984,3.609375,3.625,928800,3.6875,3.65625,1.3029340505599976
18-07-1984,3.53125,3.65625,272800,3.65625,3.625,1.2917977571487427
19-07-1984,3.46875,3.625,314400,3.625,3.5,1.247253179550171
20-07-1984,3.53125,3.53125,136000,3.625,3.59375,1.2806620597839355
23-07-1984,3.53125,3.59375,532000,3.59375,3.546875,1.2639573812484741
24-07-1984,3.53125,3.546875,476800,3.59375,3.546875,1.2639573812484741
25-07-1984,3.515625,3.546875,224800,3.578125,3.546875,1.2639573812484741
26-07-1984,3.5,3.578125,936800,3.578125,3.53125,1.2583895921707153
27-07-1984,3.46875,3.5,457600,3.625,3.53125,1.2583895921707153
30-07-1984,3.46875,3.546875,628000,3.609375,3.5,1.247253179550171
31-07-1984,3.40625,3.484375,531200,3.53125,3.453125,1.2305487394332886
01-08-1984,3.484375,3.484375,1785600,3.734375,3.625,1.2917977571487427
02-08-1984,3.625,3.625,1441600,3.75,3.75,1.3363431692123413
03-08-1984,3.828125,3.875,1789600,3.9375,3.875,1.3808876276016235
06-08-1984,3.8125,3.859375,2960800,3.9375,3.9375,1.41964590549469
07-08-1984,3.890625,3.90625,716000,4.046875,3.984375,1.436547040939331
08-08-1984,3.9375,3.984375,592000,4.0,3.9375,1.41964590549469
09-08-1984,3.875,3.9375,1179200,4.125,4.109375,1.4816149473190308
10-08-1984,4.09375,4.09375,1677600,4.234375,4.1875,1.5097814798355103
13-08-1984,4.0625,4.15625,1063200,4.1875,4.078125,1.4703469276428223
14-08-1984,4.09375,4.15625,637600,4.15625,4.09375,1.4759811162948608
15-08-1984,3.96875,4.03125,536000,4.109375,4.078125,1.4703469276428223
16-08-1984,4.046875,4.046875,495200,4.15625,4.09375,1.4759811162948608
17-08-1984,4.09375,4.125,474400,4.15625,4.109375,1.4816149473190308
20-08-1984,4.09375,4.09375,893600,4.1875,4.1875,1.5097814798355103
21-08-1984,4.15625,4.21875,700000,4.28125,4.234375,1.5266828536987305
22-08-1984,4.125,4.234375,1062400,4.234375,4.21875,1.5210493803024292
23-08-1984,4.171875,4.1875,199200,4.21875,4.1875,1.5097814798355103
24-08-1984,4.1875,4.1875,376800,4.3125,4.296875,1.5492173433303833
27-08-1984,4.21875,4.3125,188800,4.3125,4.28125,1.543583869934082
28-08-1984,4.21875,4.25,974400,4.296875,4.234375,1.5266828536987305
29-08-1984,4.171875,4.25,725600,4.28125,4.1875,1.5097814798355103
30-08-1984,4.140625,4.15625,276000,4.203125,4.15625,1.4985156059265137
31-08-1984,4.09375,4.125,365600,4.1875,4.1875,1.5097814798355103
04-09-1984,4.140625,4.15625,382400,4.171875,4.171875,1.5041486024856567
05-09-1984,4.078125,4.140625,368000,4.171875,4.140625,1.4928816556930542
06-09-1984,4.171875,4.171875,220000,4.203125,4.1875,1.5097814798355103
07-09-1984,4.15625,4.234375,332000,4.25,4.1875,1.5097814798355103
10-09-1984,4.140625,4.15625,212800,4.21875,4.1875,1.5097814798355103
11-09-1984,4.21875,4.21875,533600,4.28125,4.25,1.5323162078857422
12-09-1984,4.1875,4.21875,748800,4.25,4.21875,1.5210493803024292
13-09-1984,4.1875,4.1875,1043200,4.34375,4.34375,1.5661180019378662
14-09-1984,4.296875,4.359375,648800,4.375,4.34375,1.5661180019378662
17-09-1984,4.3125,4.3125,676800,4.40625,4.40625,1.5886521339416504
18-09-1984,4.40625,4.421875,744800,4.484375,4.484375,1.6168173551559448
19-09-1984,4.421875,4.453125,767200,4.515625,4.4375,1.599919080734253
20-09-1984,4.40625,4.40625,536800,4.484375,4.46875,1.6111863851547241
21-09-1984,4.4375,4.4375,721600,4.484375,4.4375,1.599919080734253
24-09-1984,4.40625,4.421875,444000,4.484375,4.46875,1.6111863851547241
25-09-1984,4.375,4.453125,1692000,4.453125,4.421875,1.594285249710083
26-09-1984,4.359375,4.40625,603200,4.46875,4.359375,1.5717512369155884
27-09-1984,4.28125,4.390625,757600,4.40625,4.375,1.5773842334747314
28-09-1984,4.15625,4.265625,817600,4.265625,4.21875,1.5210493803024292
01-10-1984,4.171875,4.1875,296800,4.25,4.21875,1.5210493803024292
02-10-1984,4.171875,4.203125,294400,4.28125,4.171875,1.5041486024856567
03-10-1984,4.0,4.140625,1790400,4.1875,4.03125,1.453446865081787
04-10-1984,4.03125,4.03125,644000,4.09375,4.09375,1.4759811162948608
05-10-1984,4.125,4.125,310400,4.21875,4.171875,1.5041486024856567
08-10-1984,4.078125,4.15625,121600,4.171875,4.109375,1.4816149473190308
09-10-1984,4.09375,4.109375,1056000,4.15625,4.140625,1.4928816556930542
10-10-1984,4.03125,4.140625,262400,4.15625,4.15625,1.4985156059265137
11-10-1984,4.140625,4.140625,126400,4.21875,4.21875,1.5210493803024292
12-10-1984,4.1875,4.1875,442400,4.328125,4.296875,1.5492173433303833
15-10-1984,4.28125,4.3125,1718400,4.390625,4.34375,1.5661180019378662
16-10-1984,4.1875,4.328125,244000,4.34375,4.21875,1.5210493803024292
17-10-1984,4.1875,4.21875,328800,4.28125,4.25,1.5323162078857422
18-10-1984,4.21875,4.21875,368000,4.34375,4.34375,1.5661180019378662
19-10-1984,4.34375,4.34375,1361600,4.5625,4.421875,1.594285249710083
22-10-1984,4.375,4.421875,663200,4.421875,4.375,1.5773842334747314
23-10-1984,4.3125,4.34375,997600,4.375,4.34375,1.5661180019378662
24-10-1984,4.328125,4.328125,234400,4.4375,4.390625,1.5830180644989014
25-10-1984,4.328125,4.375,1270400,4.390625,4.34375,1.5661180019378662
26-10-1984,4.234375,4.3125,825600,4.34375,4.28125,1.543583869934082
29-10-1984,4.25,4.265625,343200,4.28125,4.25,1.5323162078857422
30-10-1984,4.21875,4.25,420000,4.359375,4.328125,1.5604842901229858
31-10-1984,4.28125,4.28125,791200,4.3125,4.296875,1.5492173433303833
01-11-1984,4.09375,4.125,859200,4.15625,4.125,1.4872488975524902
02-11-1984,4.0625,4.078125,1601600,4.171875,4.140625,1.5093469619750977
05-11-1984,4.109375,4.125,407200,4.203125,4.203125,1.5321300029754639
06-11-1984,4.21875,4.21875,916000,4.296875,4.296875,1.5663044452667236
07-11-1984,4.234375,4.28125,539200,4.296875,4.28125,1.5606085062026978
08-11-1984,4.25,4.28125,999200,4.296875,4.28125,1.5606085062026978
09-11-1984,4.234375,4.296875,480000,4.3125,4.28125,1.5606085062026978
12-11-1984,4.265625,4.265625,361600,4.3125,4.296875,1.5663044452667236
13-11-1984,4.234375,4.265625,615200,4.296875,4.28125,1.5606085062026978
14-11-1984,4.25,4.265625,357600,4.328125,4.3125,1.5720001459121704
15-11-1984,4.28125,4.3125,764000,4.3125,4.3125,1.5720001459121704
16-11-1984,4.28125,4.3125,492000,4.359375,4.328125,1.5776960849761963
19-11-1984,4.28125,4.296875,768000,4.375,4.3125,1.5720001459121704
20-11-1984,4.21875,4.265625,313600,4.296875,4.25,1.5492173433303833
21-11-1984,4.21875,4.28125,612800,4.28125,4.25,1.5492173433303833
23-11-1984,4.21875,4.234375,168000,4.28125,4.25,1.5492173433303833
26-11-1984,4.203125,4.25,520800,4.25,4.234375,1.543521761894226
27-11-1984,4.171875,4.203125,790400,4.234375,4.203125,1.5321300029754639
28-11-1984,4.125,4.1875,481600,4.1875,4.140625,1.5093469619750977
29-11-1984,4.03125,4.109375,733600,4.125,4.078125,1.4865646362304688
30-11-1984,4.078125,4.125,350400,4.1875,4.109375,1.4979560375213623
03-12-1984,4.0625,4.078125,244800,4.125,4.078125,1.4865646362304688
04-12-1984,4.078125,4.078125,598400,4.1875,4.15625,1.515043020248413
05-12-1984,4.0625,4.125,287200,4.125,4.09375,1.4922600984573364
06-12-1984,4.078125,4.09375,384800,4.171875,4.140625,1.5093469619750977
07-12-1984,4.09375,4.09375,342400,4.140625,4.125,1.5036518573760986
10-12-1984,4.125,4.125,331200,4.171875,4.140625,1.5093469619750977
11-12-1984,4.125,4.125,416000,4.1875,4.140625,1.5093469619750977
12-12-1984,4.125,4.125,872800,4.15625,4.140625,1.5093469619750977
13-12-1984,4.09375,4.125,420000,4.15625,4.109375,1.4979560375213623
14-12-1984,4.0625,4.078125,412000,4.125,4.09375,1.4922600984573364
17-12-1984,4.0,4.125,1825600,4.125,4.0625,1.4808695316314697
18-12-1984,4.09375,4.09375,884000,4.171875,4.171875,1.5207388401031494
19-12-1984,4.15625,4.15625,755200,4.21875,4.15625,1.515043020248413
20-12-1984,4.125,4.203125,779200,4.21875,4.125,1.5036518573760986
21-12-1984,3.9375,4.09375,1142400,4.15625,4.046875,1.4751731157302856
24-12-1984,4.046875,4.078125,260800,4.125,4.109375,1.4979560375213623
26-12-1984,4.03125,4.109375,103200,4.109375,4.046875,1.4751731157302856
27-12-1984,4.046875,4.078125,1440800,4.09375,4.0625,1.4808695316314697
28-12-1984,4.0,4.03125,319200,4.0625,4.046875,1.4751731157302856
31-12-1984,4.046875,4.078125,479200,4.171875,4.109375,1.4979560375213623
02-01-1985,4.109375,4.109375,910400,4.203125,4.15625,1.515043020248413
03-01-1985,4.125,4.15625,364800,4.171875,4.15625,1.515043020248413
04-01-1985,4.125,4.140625,332800,4.171875,4.125,1.5036518573760986
07-01-1985,4.140625,4.171875,1047200,4.21875,4.171875,1.5207388401031494
08-01-1985,4.15625,4.171875,320800,4.203125,4.1875,1.5264344215393066
09-01-1985,4.1875,4.21875,337600,4.21875,4.21875,1.5378262996673584
10-01-1985,4.203125,4.21875,1797600,4.296875,4.296875,1.5663044452667236
11-01-1985,4.234375,4.296875,1031200,4.3125,4.28125,1.5606085062026978
14-01-1985,4.25,4.25,2920800,4.328125,4.328125,1.5776960849761963
15-01-1985,4.296875,4.328125,5229600,4.4375,4.40625,1.6061737537384033
16-01-1985,4.40625,4.5,13840000,4.5625,4.515625,1.646042823791504
17-01-1985,4.484375,4.515625,1127200,4.515625,4.5,1.6403480768203735
18-01-1985,4.515625,4.53125,2415200,4.578125,4.546875,1.657434344291687
21-01-1985,4.53125,4.53125,1831200,4.71875,4.71875,1.720085859298706
22-01-1985,4.71875,4.734375,2558400,4.859375,4.734375,1.725781798362732
23-01-1985,4.71875,4.75,644800,4.796875,4.765625,1.7371737957000732
24-01-1985,4.71875,4.734375,940800,4.796875,4.734375,1.725781798362732
25-01-1985,4.71875,4.71875,966400,4.921875,4.921875,1.7941296100616455
28-01-1985,4.859375,4.875,801600,5.0,5.0,1.8226091861724854
29-01-1985,4.875,4.921875,579200,4.96875,4.96875,1.8112173080444336
30-01-1985,4.890625,4.984375,1524000,4.984375,4.96875,1.8112173080444336
31-01-1985,4.78125,4.875,620800,4.90625,4.84375,1.7656512260437012
01-02-1985,4.78125,4.8125,423200,4.84375,4.78125,1.7428697347640991
04-02-1985,4.765625,4.765625,1716000,4.828125,4.8125,1.7542599439620972
05-02-1985,4.75,4.8125,636800,4.828125,4.78125,1.7428697347640991
06-02-1985,4.65625,4.765625,1779200,4.8125,4.703125,1.7143909931182861
07-02-1985,4.6875,4.703125,568000,4.78125,4.78125,1.7428697347640991
08-02-1985,4.75,4.78125,959200,4.859375,4.859375,1.7713488340377808
11-02-1985,4.78125,4.8125,571200,4.8125,4.796875,1.7667429447174072
12-02-1985,4.71875,4.765625,586400,4.796875,4.734375,1.7437242269515991
13-02-1985,4.6875,4.71875,432000,4.75,4.734375,1.7437242269515991
14-02-1985,4.65625,4.734375,1396800,4.734375,4.6875,1.7264596223831177
15-02-1985,4.625,4.65625,1879200,4.65625,4.625,1.7034401893615723
19-02-1985,4.609375,4.6875,924800,4.6875,4.609375,1.6976852416992188
20-02-1985,4.578125,4.609375,1586400,4.625,4.59375,1.6919299364089966
21-02-1985,4.546875,4.59375,1268000,4.59375,4.578125,1.6861752271652222
22-02-1985,4.546875,4.5625,1045600,4.609375,4.59375,1.6919299364089966
25-02-1985,4.609375,4.609375,356800,4.609375,4.609375,1.6976852416992188
26-02-1985,4.59375,4.609375,665600,4.65625,4.640625,1.709194540977478
27-02-1985,4.625,4.625,451200,4.6875,4.65625,1.714949607849121
28-02-1985,4.671875,4.6875,763200,4.71875,4.71875,1.7379696369171143
01-03-1985,4.71875,4.75,774400,4.859375,4.828125,1.7782533168792725
04-03-1985,4.734375,4.796875,907200,4.8125,4.765625,1.7552331686019897
05-03-1985,4.71875,4.796875,940000,4.84375,4.75,1.7494784593582153
06-03-1985,4.75,4.75,1347200,4.859375,4.8125,1.772498369216919
07-03-1985,4.765625,4.78125,678400,4.890625,4.828125,1.7782533168792725
08-03-1985,4.8125,4.8125,493600,4.90625,4.90625,1.8070273399353027
11-03-1985,4.859375,4.875,1016000,4.953125,4.875,1.7955182790756226
12-03-1985,4.6875,4.84375,862400,4.875,4.75,1.7494784593582153
13-03-1985,4.6875,4.71875,280800,4.796875,4.703125,1.7322142124176025
14-03-1985,4.65625,4.6875,569600,4.8125,4.796875,1.7667429447174072
15-03-1985,4.625,4.765625,582400,4.8125,4.625,1.7034401893615723
18-03-1985,4.625,4.625,464000,4.703125,4.671875,1.720704436302185
19-03-1985,4.640625,4.640625,392800,4.796875,4.75,1.7494784593582153
20-03-1985,4.65625,4.71875,212800,4.71875,4.6875,1.7264596223831177
21-03-1985,4.625,4.65625,334400,4.703125,4.671875,1.720704436302185
22-03-1985,4.65625,4.6875,413600,4.734375,4.703125,1.7322142124176025
25-03-1985,4.65625,4.703125,211200,4.734375,4.703125,1.7322142124176025
26-03-1985,4.6875,4.71875,472000,4.78125,4.71875,1.7379696369171143
27-03-1985,4.703125,4.734375,250400,4.75,4.734375,1.7437242269515991
28-03-1985,4.640625,4.734375,610400,4.734375,4.671875,1.720704436302185
29-03-1985,4.625,4.703125,410400,4.703125,4.65625,1.714949607849121
01-04-1985,4.65625,4.671875,460800,4.703125,4.6875,1.7264596223831177
02-04-1985,4.671875,4.703125,448000,4.71875,4.703125,1.7322142124176025
03-04-1985,4.671875,4.671875,388000,4.75,4.75,1.7494784593582153
04-04-1985,4.703125,4.703125,434400,4.75,4.734375,1.7437242269515991
08-04-1985,4.703125,4.734375,388000,4.734375,4.734375,1.7437242269515991
09-04-1985,4.6875,4.6875,454400,4.71875,4.71875,1.7379696369171143
10-04-1985,4.65625,4.78125,894400,4.78125,4.6875,1.7264596223831177
11-04-1985,4.671875,4.703125,643200,4.71875,4.6875,1.7264596223831177
12-04-1985,4.625,4.65625,1068800,4.6875,4.65625,1.714949607849121
15-04-1985,4.625,4.625,189600,4.6875,4.6875,1.7264596223831177
16-04-1985,4.578125,4.640625,768800,4.671875,4.625,1.7034401893615723
17-04-1985,4.421875,4.5625,2160800,4.578125,4.484375,1.651646375656128
18-04-1985,4.390625,4.40625,640800,4.4375,4.421875,1.628626823425293
19-04-1985,4.390625,4.4375,615200,4.453125,4.4375,1.6343801021575928
22-04-1985,4.34375,4.40625,780000,4.40625,4.40625,1.6228716373443604
23-04-1985,4.34375,4.34375,564000,4.453125,4.453125,1.6401363611221313
24-04-1985,4.375,4.390625,4750400,4.453125,4.390625,1.6171163320541382
25-04-1985,4.34375,4.4375,649600,4.4375,4.4375,1.6343801021575928
26-04-1985,4.390625,4.40625,842400,4.4375,4.421875,1.628626823425293
29-04-1985,4.375,4.421875,504000,4.421875,4.390625,1.6171163320541382
30-04-1985,4.34375,4.359375,612800,4.375,4.359375,1.6056077480316162
01-05-1985,4.34375,4.359375,2526400,4.40625,4.34375,1.5998516082763672
02-05-1985,4.3125,4.328125,977600,4.359375,4.359375,1.6056077480316162
03-05-1985,4.34375,4.359375,497600,4.40625,4.390625,1.6171163320541382
06-05-1985,4.3125,4.359375,297600,4.375,4.3125,1.606638789176941
07-05-1985,4.3125,4.34375,423200,4.375,4.375,1.62992262840271
08-05-1985,4.328125,4.375,1213600,4.375,4.34375,1.6182806491851807
09-05-1985,4.359375,4.359375,549600,4.40625,4.40625,1.6415655612945557
10-05-1985,4.40625,4.421875,1000000,4.53125,4.515625,1.6823129653930664
13-05-1985,4.46875,4.546875,528000,4.546875,4.5,1.6764928102493286
14-05-1985,4.53125,4.53125,852000,4.625,4.59375,1.711419939994812
15-05-1985,4.59375,4.609375,1112000,4.6875,4.640625,1.7288832664489746
16-05-1985,4.65625,4.671875,509600,4.75,4.75,1.769630789756775
17-05-1985,4.78125,4.78125,1585600,4.859375,4.84375,1.8045576810836792
20-05-1985,4.875,4.890625,1227200,4.96875,4.9375,1.8394851684570312
21-05-1985,4.90625,4.9375,665600,4.96875,4.953125,1.8453062772750854
22-05-1985,4.921875,4.9375,1565600,4.96875,4.9375,1.8394851684570312
23-05-1985,4.875,4.921875,925600,4.953125,4.953125,1.8453062772750854
24-05-1985,4.890625,4.96875,918400,4.984375,4.921875,1.8336634635925293
28-05-1985,4.828125,4.90625,714400,4.921875,4.859375,1.8103796243667603
29-05-1985,4.828125,4.84375,803200,4.90625,4.875,1.816200613975525
30-05-1985,4.84375,4.890625,470400,4.90625,4.875,1.816200613975525
31-05-1985,4.84375,4.875,618400,4.90625,4.890625,1.8220218420028687
03-06-1985,4.796875,4.859375,446400,4.890625,4.8125,1.7929165363311768
04-06-1985,4.78125,4.78125,4740800,4.96875,4.921875,1.8336634635925293
05-06-1985,4.9375,4.953125,2116000,5.109375,5.09375,1.8976960182189941
06-06-1985,5.03125,5.09375,1146400,5.109375,5.109375,1.9035183191299438
07-06-1985,5.09375,5.09375,784000,5.1875,5.15625,1.92098069190979
10-06-1985,5.125,5.15625,580800,5.15625,5.125,1.9093385934829712
11-06-1985,5.09375,5.140625,719200,5.140625,5.109375,1.9035183191299438
12-06-1985,5.078125,5.109375,701600,5.125,5.09375,1.8976960182189941
13-06-1985,5.078125,5.125,1678400,5.15625,5.09375,1.8976960182189941
14-06-1985,5.125,5.140625,594400,5.234375,5.21875,1.9442671537399292
17-06-1985,5.1875,5.203125,363200,5.25,5.25,1.9559075832366943
18-06-1985,5.171875,5.21875,696800,5.28125,5.1875,1.9326235055923462
19-06-1985,5.15625,5.203125,1571200,5.28125,5.25,1.9559075832366943
20-06-1985,5.21875,5.21875,241600,5.28125,5.28125,1.9675500392913818
21-06-1985,5.25,5.25,808000,5.296875,5.296875,1.9733717441558838
24-06-1985,5.21875,5.265625,1336800,5.28125,5.265625,1.9617291688919067
25-06-1985,5.1875,5.25,1568000,5.359375,5.203125,1.9384448528289795
26-06-1985,5.1875,5.21875,676000,5.28125,5.25,1.9559075832366943
27-06-1985,5.21875,5.25,648000,5.296875,5.21875,1.9442671537399292
28-06-1985,5.203125,5.25,646400,5.265625,5.234375,1.9500874280929565
01-07-1985,5.203125,5.234375,485600,5.296875,5.28125,1.9675500392913818
02-07-1985,5.25,5.265625,669600,5.3125,5.3125,1.9791924953460693
03-07-1985,5.28125,5.3125,1062400,5.4375,5.40625,2.01412034034729
05-07-1985,5.390625,5.40625,444000,5.421875,5.421875,2.019941568374634
08-07-1985,5.390625,5.390625,688000,5.421875,5.421875,2.019941568374634
09-07-1985,5.328125,5.421875,791200,5.421875,5.390625,2.00829815864563
10-07-1985,5.34375,5.375,2248800,5.40625,5.375,2.0024776458740234
11-07-1985,5.328125,5.328125,1067200,5.390625,5.390625,2.00829815864563
12-07-1985,5.390625,5.421875,568800,5.453125,5.453125,2.031583070755005
15-07-1985,5.4375,5.46875,708800,5.5,5.453125,2.031583070755005
16-07-1985,5.421875,5.453125,656800,5.53125,5.5,2.0490474700927734
17-07-1985,5.59375,5.625,2698400,5.671875,5.671875,2.113079309463501
18-07-1985,5.625,5.671875,1896000,5.796875,5.78125,2.1538281440734863
19-07-1985,5.734375,5.75,1309600,5.90625,5.875,2.1887550354003906
22-07-1985,5.71875,5.84375,429600,5.859375,5.765625,2.148005962371826
23-07-1985,5.59375,5.796875,941600,5.8125,5.625,2.0956156253814697
24-07-1985,5.5,5.65625,410400,5.65625,5.53125,2.0606892108917236
25-07-1985,5.5,5.53125,535200,5.5625,5.5625,2.072331428527832
26-07-1985,5.546875,5.546875,1002400,5.734375,5.71875,2.130542278289795
29-07-1985,5.59375,5.734375,928000,5.734375,5.640625,2.1014368534088135
30-07-1985,5.59375,5.625,361600,5.65625,5.640625,2.1014368534088135
31-07-1985,5.625,5.640625,216800,5.6875,5.671875,2.113079309463501
01-08-1985,5.625,5.671875,372800,5.6875,5.65625,2.107257127761841
02-08-1985,5.640625,5.671875,945600,5.734375,5.6875,2.1189005374908447
05-08-1985,5.640625,5.6875,348800,5.6875,5.65625,2.107257127761841
06-08-1985,5.46875,5.5,2713600,5.65625,5.5,2.067321300506592
07-08-1985,5.40625,5.5,1204000,5.53125,5.5,2.067321300506592
08-08-1985,5.5,5.53125,1320000,5.6875,5.6875,2.1378002166748047
09-08-1985,5.609375,5.65625,725600,5.703125,5.640625,2.120177745819092
12-08-1985,5.609375,5.609375,644000,5.65625,5.625,2.1143062114715576
13-08-1985,5.625,5.640625,587200,5.6875,5.640625,2.120177745819092
14-08-1985,5.625,5.625,302400,5.6875,5.65625,2.126052141189575
15-08-1985,5.53125,5.671875,822400,5.671875,5.53125,2.0790679454803467
16-08-1985,5.375,5.5,678400,5.53125,5.421875,2.0379552841186523
19-08-1985,5.421875,5.421875,441600,5.484375,5.453125,2.049703359603882
20-08-1985,5.453125,5.484375,385600,5.578125,5.546875,2.084941864013672
21-08-1985,5.453125,5.53125,1249600,5.625,5.5625,2.0908141136169434
22-08-1985,5.484375,5.59375,1018400,5.59375,5.5,2.067321300506592
23-08-1985,5.4375,5.46875,458400,5.5625,5.484375,2.0614471435546875
26-08-1985,5.484375,5.484375,340800,5.546875,5.5,2.067321300506592
27-08-1985,5.484375,5.484375,152800,5.5625,5.5625,2.0908141136169434
28-08-1985,5.46875,5.5625,448800,5.578125,5.5,2.067321300506592
29-08-1985,5.484375,5.5,355200,5.546875,5.53125,2.0790679454803467
30-08-1985,5.484375,5.53125,737600,5.546875,5.53125,2.0790679454803467
03-09-1985,5.515625,5.546875,384000,5.6875,5.6875,2.1378002166748047
04-09-1985,5.625,5.6875,371200,5.734375,5.671875,2.131925106048584
05-09-1985,5.5625,5.6875,484000,5.6875,5.578125,2.0966858863830566
06-09-1985,5.484375,5.5625,406400,5.59375,5.546875,2.084941864013672
09-09-1985,5.5,5.5625,142400,5.5625,5.5,2.067321300506592
10-09-1985,5.46875,5.46875,272800,5.515625,5.5,2.067321300506592
11-09-1985,5.375,5.5,1280000,5.5,5.390625,2.026209831237793
12-09-1985,5.34375,5.375,597600,5.4375,5.375,2.0203380584716797
13-09-1985,5.375,5.375,556800,5.4375,5.421875,2.0379552841186523
16-09-1985,5.40625,5.453125,253600,5.53125,5.515625,2.073193073272705
17-09-1985,5.515625,5.515625,879200,5.625,5.609375,2.1084322929382324
18-09-1985,5.484375,5.578125,427200,5.640625,5.484375,2.0614471435546875
19-09-1985,5.453125,5.515625,568000,5.515625,5.484375,2.0614471435546875
20-09-1985,5.421875,5.453125,589600,5.53125,5.46875,2.055574893951416
23-09-1985,5.53125,5.53125,484000,5.59375,5.59375,2.1025590896606445
24-09-1985,5.578125,5.59375,599200,5.65625,5.609375,2.1084322929382324
25-09-1985,5.546875,5.546875,301600,5.609375,5.609375,2.1084322929382324
26-09-1985,5.53125,5.625,360000,5.625,5.59375,2.1025590896606445
30-09-1985,5.578125,5.59375,349600,5.625,5.625,2.1143062114715576
01-10-1985,5.59375,5.609375,324000,5.703125,5.703125,2.143672466278076
02-10-1985,5.59375,5.71875,1103200,5.796875,5.59375,2.1025590896606445
03-10-1985,5.578125,5.578125,260800,5.6875,5.609375,2.1084322929382324
04-10-1985,5.546875,5.609375,794400,5.609375,5.578125,2.0966858863830566
07-10-1985,5.390625,5.5625,848800,5.5625,5.40625,2.0320844650268555
08-10-1985,5.40625,5.4375,253600,5.484375,5.453125,2.049703359603882
09-10-1985,5.40625,5.421875,2060000,5.46875,5.4375,2.0438296794891357
10-10-1985,5.421875,5.421875,260000,5.453125,5.4375,2.0438296794891357
11-10-1985,5.40625,5.40625,1391200,5.46875,5.46875,2.055574893951416
14-10-1985,5.453125,5.46875,680000,5.53125,5.53125,2.0790679454803467
15-10-1985,5.53125,5.5625,476800,5.59375,5.59375,2.1025590896606445
16-10-1985,5.578125,5.578125,1112000,5.671875,5.671875,2.131925106048584
17-10-1985,5.640625,5.640625,757600,5.703125,5.6875,2.1378002166748047
18-10-1985,5.5625,5.671875,757600,5.703125,5.578125,2.0966858863830566
21-10-1985,5.5625,5.59375,1012800,5.734375,5.65625,2.126052141189575
22-10-1985,5.65625,5.671875,692000,5.71875,5.703125,2.143672466278076
23-10-1985,5.59375,5.703125,376800,5.703125,5.671875,2.131925106048584
24-10-1985,5.59375,5.65625,386400,5.671875,5.625,2.1143062114715576
25-10-1985,5.515625,5.59375,182400,5.609375,5.609375,2.1084322929382324
28-10-1985,5.546875,5.609375,180000,5.625,5.609375,2.1084322929382324
29-10-1985,5.609375,5.609375,212800,5.65625,5.65625,2.126052141189575
30-10-1985,5.625,5.625,640000,5.671875,5.671875,2.131925106048584
31-10-1985,5.65625,5.65625,524000,5.6875,5.6875,2.1378002166748047
01-11-1985,5.65625,5.65625,965600,5.890625,5.890625,2.2141473293304443
04-11-1985,5.859375,5.90625,1089600,6.0,5.90625,2.220020294189453
05-11-1985,5.8125,6.015625,884000,6.015625,6.015625,2.28238582611084
06-11-1985,6.015625,6.015625,1521600,6.15625,6.046875,2.2942440509796143
07-11-1985,6.03125,6.046875,840000,6.15625,6.15625,2.335740804672241
08-11-1985,6.046875,6.125,337600,6.125,6.09375,2.312028169631958
11-11-1985,6.03125,6.09375,656800,6.15625,6.15625,2.335740804672241
12-11-1985,6.125,6.125,1264800,6.25,6.234375,2.3653836250305176
13-11-1985,6.140625,6.25,449600,6.25,6.140625,2.3298122882843018
14-11-1985,6.078125,6.125,614400,6.234375,6.171875,2.341668128967285
15-11-1985,6.15625,6.15625,1276800,6.3125,6.203125,2.353527069091797
18-11-1985,6.140625,6.21875,1349600,6.296875,6.296875,2.389096975326538
19-11-1985,6.34375,6.375,854400,6.421875,6.421875,2.4365222454071045
20-11-1985,6.34375,6.375,290400,6.40625,6.375,2.4187371730804443
21-11-1985,6.34375,6.375,668800,6.40625,6.375,2.4187371730804443
22-11-1985,6.203125,6.34375,374400,6.375,6.21875,2.359455108642578
25-11-1985,6.1875,6.3125,424800,6.3125,6.265625,2.3772406578063965
26-11-1985,6.0625,6.234375,1265600,6.25,6.15625,2.335740804672241
27-11-1985,6.1875,6.1875,1169600,6.3125,6.28125,2.3831675052642822
29-11-1985,6.203125,6.25,924800,6.3125,6.234375,2.3653836250305176
02-12-1985,6.125,6.203125,472800,6.21875,6.203125,2.353527069091797
03-12-1985,6.171875,6.21875,650400,6.25,6.1875,2.347597122192383
04-12-1985,6.03125,6.0625,2110400,6.1875,6.171875,2.341668128967285
05-12-1985,5.9375,6.15625,1506400,6.1875,5.9375,2.2527453899383545
06-12-1985,5.5625,5.90625,1225600,5.90625,5.859375,2.2231054306030273
09-12-1985,5.828125,5.828125,827200,6.078125,5.96875,2.2646007537841797
10-12-1985,5.9375,5.9375,409600,6.03125,5.953125,2.2586731910705566
11-12-1985,5.9375,5.9375,549600,6.0,5.984375,2.270529270172119
12-12-1985,5.90625,5.984375,1932000,6.0625,5.984375,2.270529270172119
13-12-1985,5.984375,5.984375,625600,6.234375,6.203125,2.353527069091797
16-12-1985,6.140625,6.1875,1236000,6.359375,6.34375,2.406878709793091
17-12-1985,6.1875,6.359375,1179200,6.359375,6.359375,2.4128096103668213
18-12-1985,6.28125,6.328125,987200,6.375,6.34375,2.406878709793091
19-12-1985,6.28125,6.296875,683200,6.359375,6.296875,2.389096975326538
20-12-1985,6.25,6.296875,795200,6.375,6.375,2.4187371730804443
23-12-1985,6.28125,6.3125,602400,6.375,6.359375,2.4128096103668213
24-12-1985,6.09375,6.3125,727200,6.3125,6.140625,2.3298122882843018
26-12-1985,6.09375,6.125,173600,6.140625,6.109375,2.3179571628570557
27-12-1985,6.078125,6.078125,525600,6.1875,6.1875,2.347597122192383
30-12-1985,6.15625,6.1875,418400,6.265625,6.265625,2.3772406578063965
31-12-1985,6.25,6.28125,786400,6.375,6.375,2.4187371730804443
02-01-1986,6.296875,6.375,540800,6.375,6.328125,2.4009506702423096
03-01-1986,6.25,6.3125,650400,6.34375,6.296875,2.389096975326538
06-01-1986,6.140625,6.296875,427200,6.296875,6.1875,2.347597122192383
07-01-1986,6.03125,6.21875,592000,6.234375,6.125,2.3238840103149414
08-01-1986,5.6875,6.15625,1376800,6.171875,5.71875,2.1697499752044678
09-01-1986,5.625,5.625,1164800,5.828125,5.828125,2.2112460136413574
10-01-1986,5.765625,5.8125,749600,5.84375,5.78125,2.1934621334075928
13-01-1986,5.765625,5.78125,688800,5.84375,5.78125,2.1934621334075928
14-01-1986,5.71875,5.78125,1518400,5.796875,5.765625,2.1875343322753906
15-01-1986,5.71875,5.75,1378400,5.90625,5.90625,2.2408878803253174
16-01-1986,5.875,5.921875,352000,6.03125,5.984375,2.270529270172119
17-01-1986,5.9375,5.953125,518400,6.0625,6.015625,2.28238582611084
20-01-1986,5.890625,5.984375,744800,5.984375,5.96875,2.2646007537841797
21-01-1986,5.875,5.953125,740000,6.0,5.921875,2.2468173503875732
22-01-1986,5.8125,5.96875,1319200,6.0,5.8125,2.20531964302063
23-01-1986,5.765625,5.78125,598400,5.875,5.828125,2.2112460136413574
24-01-1986,5.8125,5.8125,909600,5.953125,5.953125,2.2586731910705566
27-01-1986,5.890625,5.90625,435200,5.984375,5.96875,2.2646007537841797
28-01-1986,5.9375,6.0,480800,6.0,5.953125,2.2586731910705566
29-01-1986,5.953125,5.984375,848000,6.125,6.03125,2.2883145809173584
30-01-1986,6.0,6.015625,881600,6.109375,6.0625,2.300171136856079
31-01-1986,6.078125,6.109375,1335200,6.171875,6.140625,2.3298122882843018
03-02-1986,6.109375,6.109375,628000,6.21875,6.203125,2.353527069091797
04-02-1986,6.21875,6.25,1524000,6.28125,6.234375,2.3653836250305176
05-02-1986,6.234375,6.25,1951200,6.328125,6.3125,2.395024061203003
06-02-1986,6.328125,6.34375,1742400,6.453125,6.421875,2.4365222454071045
07-02-1986,6.359375,6.421875,972000,6.53125,6.53125,2.4780185222625732
10-02-1986,6.546875,6.703125,1145600,6.734375,6.703125,2.5432307720184326
11-02-1986,6.640625,6.875,1729600,6.890625,6.875,2.6300220489501953
12-02-1986,6.75,6.84375,1461600,6.90625,6.75,2.5822041034698486
13-02-1986,6.6875,6.71875,1157600,6.875,6.875,2.6300220489501953
14-02-1986,6.734375,6.90625,1000000,6.96875,6.96875,2.6658859252929688
18-02-1986,6.96875,7.0,1034400,7.15625,7.125,2.7256593704223633
19-02-1986,7.125,7.15625,1052000,7.34375,7.171875,2.7435896396636963
20-02-1986,7.125,7.171875,2320800,7.234375,7.15625,2.737614631652832
21-02-1986,7.140625,7.15625,1183200,7.3125,7.265625,2.779454231262207
24-02-1986,7.15625,7.21875,668800,7.3125,7.296875,2.791407585144043
25-02-1986,7.15625,7.3125,1738400,7.34375,7.21875,2.7615225315093994
26-02-1986,7.21875,7.25,732000,7.296875,7.28125,2.785433053970337
27-02-1986,7.25,7.3125,463200,7.375,7.328125,2.8033628463745117
28-02-1986,7.46875,7.5,1215200,7.6875,7.6875,2.940842390060425
03-03-1986,7.421875,7.6875,721600,7.6875,7.453125,2.851181983947754
04-03-1986,7.34375,7.453125,1326400,7.6875,7.53125,2.881070375442505
05-03-1986,7.46875,7.5625,562400,7.5625,7.5625,2.893024206161499
06-03-1986,7.5625,7.59375,1779200,8.046875,7.984375,3.0544116497039795
07-03-1986,7.84375,7.984375,1203200,7.984375,7.90625,3.0245261192321777
10-03-1986,7.71875,7.90625,428000,7.96875,7.71875,2.952796220779419
11-03-1986,7.703125,7.703125,742400,7.921875,7.890625,3.018548011779785
12-03-1986,7.875,7.875,964800,8.15625,8.03125,3.072343111038208
13-03-1986,7.921875,8.0625,636000,8.125,8.09375,3.0962538719177246
14-03-1986,7.53125,8.0625,1812800,8.125,8.0625,3.0842978954315186
17-03-1986,7.78125,7.96875,766400,8.0625,7.984375,3.0544116497039795
18-03-1986,7.8125,7.96875,484800,7.984375,7.953125,3.0424575805664062
19-03-1986,7.8125,7.921875,692000,7.96875,7.90625,3.0245261192321777
20-03-1986,7.875,7.90625,1108000,8.0625,8.0625,3.0842978954315186
21-03-1986,8.0625,8.125,1337600,8.21875,8.15625,3.1201629638671875
24-03-1986,8.125,8.21875,1558400,8.265625,8.203125,3.1380937099456787
25-03-1986,7.9375,8.1875,685600,8.1875,8.109375,3.1022298336029053
26-03-1986,8.015625,8.109375,904000,8.109375,8.046875,3.078321695327759
27-03-1986,8.0,8.09375,678400,8.109375,8.015625,3.0663650035858154
31-03-1986,8.03125,8.078125,582400,8.109375,8.078125,3.090278387069702
01-04-1986,8.015625,8.109375,619200,8.109375,8.015625,3.0663650035858154
02-04-1986,7.96875,8.03125,1211200,8.046875,8.046875,3.078321695327759
03-04-1986,7.9375,8.046875,392800,8.078125,7.96875,3.0484354496002197
04-04-1986,7.59375,7.9375,819200,8.09375,7.59375,2.9049787521362305
07-04-1986,7.546875,7.59375,560800,7.65625,7.65625,2.9288878440856934
08-04-1986,7.640625,7.671875,503200,7.875,7.75,2.964750289916992
09-04-1986,7.609375,7.8125,917600,7.890625,7.625,2.916931629180908
10-04-1986,7.375,7.65625,1039200,7.65625,7.59375,2.9049787521362305
11-04-1986,7.546875,7.578125,458400,7.65625,7.625,2.916931629180908
14-04-1986,7.53125,7.65625,730400,7.671875,7.625,2.916931629180908
15-04-1986,7.625,7.65625,269600,7.734375,7.640625,2.92290997505188
16-04-1986,7.71875,7.71875,1074400,8.28125,8.25,3.1560256481170654
17-04-1986,7.9375,8.1875,801600,8.234375,8.0,3.060389518737793
18-04-1986,7.640625,8.03125,1028000,8.046875,8.03125,3.072343111038208
21-04-1986,8.0,8.09375,858400,8.109375,8.078125,3.090278387069702
22-04-1986,8.125,8.21875,1219200,8.28125,8.25,3.1560256481170654
23-04-1986,8.1875,8.25,945600,8.28125,8.25,3.1560256481170654
24-04-1986,8.1875,8.1875,652800,8.265625,8.203125,3.1380937099456787
25-04-1986,8.15625,8.203125,555200,8.234375,8.234375,3.1500465869903564
28-04-1986,8.15625,8.234375,561600,8.265625,8.234375,3.1500465869903564
29-04-1986,8.015625,8.203125,452000,8.203125,8.09375,3.0962538719177246
30-04-1986,8.09375,8.171875,1053600,8.28125,8.125,3.1082069873809814
01-05-1986,8.03125,8.09375,796000,8.25,8.234375,3.1500465869903564
02-05-1986,8.125,8.203125,712800,8.265625,8.203125,3.1380937099456787
05-05-1986,8.125,8.171875,431200,8.25,8.21875,3.144070625305176
06-05-1986,8.09375,8.09375,180800,8.1875,8.09375,3.1190237998962402
07-05-1986,8.09375,8.140625,590400,8.25,8.234375,3.1732139587402344
08-05-1986,8.03125,8.28125,355200,8.28125,8.046875,3.1009597778320312
09-05-1986,7.921875,8.015625,398400,8.015625,7.921875,3.0527870655059814
12-05-1986,7.796875,7.9375,1021600,7.953125,7.796875,3.004619836807251
13-05-1986,7.65625,7.796875,651200,7.796875,7.703125,2.968492031097412
14-05-1986,7.625,7.71875,809600,7.734375,7.625,2.938382863998413
15-05-1986,7.4375,7.640625,608000,7.640625,7.46875,2.8781721591949463
16-05-1986,7.3125,7.4375,1061600,7.5,7.5,2.8902125358581543
19-05-1986,7.515625,7.53125,737600,7.625,7.609375,2.932361602783203
20-05-1986,7.5625,7.609375,799200,7.75,7.734375,2.980534076690674
21-05-1986,7.640625,7.75,1017600,7.796875,7.75,2.9865529537200928
22-05-1986,7.734375,7.75,465600,7.90625,7.90625,3.0467684268951416
23-05-1986,7.890625,7.921875,533600,8.03125,8.015625,3.0889151096343994
27-05-1986,7.953125,7.984375,221600,8.015625,7.984375,3.076873779296875
28-05-1986,7.875,7.984375,617600,8.0,7.953125,3.064831495285034
29-05-1986,7.8125,7.921875,1089600,7.9375,7.9375,3.058809995651245
30-05-1986,7.828125,7.875,1028000,7.90625,7.890625,3.0407450199127197
02-06-1986,7.875,7.90625,1261600,7.953125,7.953125,3.064831495285034
03-06-1986,7.90625,7.921875,451200,7.953125,7.953125,3.064831495285034
04-06-1986,7.96875,7.984375,777600,8.109375,8.09375,3.1190237998962402
05-06-1986,8.015625,8.09375,804800,8.109375,8.109375,3.1250433921813965
06-06-1986,7.890625,8.078125,664800,8.09375,7.921875,3.0527870655059814
09-06-1986,7.578125,7.890625,507200,7.890625,7.625,2.938382863998413
10-06-1986,7.59375,7.609375,776800,7.71875,7.65625,2.9504268169403076
11-06-1986,7.625,7.671875,693600,7.734375,7.71875,2.97451114654541
12-06-1986,7.640625,7.6875,357600,7.859375,7.859375,3.0287046432495117
13-06-1986,7.84375,7.84375,600000,8.03125,8.03125,3.0949370861053467
16-06-1986,7.9375,8.0,724000,8.0625,8.0625,3.106980323791504
17-06-1986,7.859375,8.0625,438400,8.0625,7.96875,3.070854425430298
18-06-1986,7.828125,7.96875,331200,7.96875,7.921875,3.0527870655059814
19-06-1986,7.6875,7.921875,492000,7.9375,7.78125,2.9985978603363037
20-06-1986,7.765625,7.78125,617600,7.875,7.84375,3.0226833820343018
23-06-1986,7.78125,7.875,881600,7.9375,7.90625,3.0467684268951416
24-06-1986,7.890625,7.9375,989600,8.109375,8.0625,3.106980323791504
25-06-1986,8.078125,8.109375,1040000,8.171875,8.171875,3.1491289138793945
26-06-1986,8.21875,8.34375,1207200,8.6875,8.6875,3.3478310108184814
27-06-1986,8.53125,8.65625,572000,8.65625,8.59375,3.3117032051086426
30-06-1986,8.5,8.5625,396000,8.640625,8.515625,3.2815968990325928
01-07-1986,8.46875,8.5,1366400,8.546875,8.53125,3.2876181602478027
02-07-1986,8.4375,8.53125,1432800,8.53125,8.46875,3.2635338306427
03-07-1986,8.3125,8.484375,1009600,8.484375,8.421875,3.2454710006713867
07-07-1986,8.15625,8.453125,603200,8.453125,8.15625,3.1431074142456055
08-07-1986,7.765625,8.0,1141600,8.0,7.9375,3.058809995651245
09-07-1986,7.828125,7.9375,952800,7.96875,7.921875,3.0527870655059814
10-07-1986,7.703125,7.921875,696000,7.921875,7.84375,3.0226833820343018
11-07-1986,7.78125,7.875,1339200,7.875,7.875,3.034724473953247
14-07-1986,7.71875,7.84375,626400,7.84375,7.765625,2.9925763607025146
15-07-1986,7.5,7.71875,1178400,7.75,7.53125,2.9022581577301025
16-07-1986,7.515625,7.625,808800,7.671875,7.515625,2.896235227584839
17-07-1986,7.5,7.5,1128000,7.671875,7.640625,2.9444048404693604
18-07-1986,7.65625,7.75,808800,7.90625,7.78125,2.9985978603363037
21-07-1986,7.65625,7.75,498400,7.75,7.71875,2.97451114654541
22-07-1986,7.6875,7.6875,740000,7.875,7.875,3.034724473953247
23-07-1986,7.8125,7.859375,1444000,7.984375,7.96875,3.070854425430298
24-07-1986,7.9375,7.96875,552000,8.0625,8.0625,3.106980323791504
25-07-1986,7.96875,8.078125,448000,8.09375,8.09375,3.1190237998962402
28-07-1986,7.8125,8.078125,580000,8.09375,7.8125,3.0106401443481445
29-07-1986,7.765625,7.828125,768800,7.828125,7.78125,2.9985978603363037
30-07-1986,7.65625,7.78125,514400,7.796875,7.703125,2.968492031097412
31-07-1986,7.65625,7.734375,704800,7.734375,7.703125,2.968492031097412
01-08-1986,7.59375,7.6875,1102400,7.6875,7.59375,2.926342010498047
04-08-1986,7.5,7.5625,620800,7.859375,7.859375,3.0287046432495117
05-08-1986,7.71875,7.71875,760800,7.875,7.71875,2.9973936080932617
06-08-1986,7.53125,7.625,532800,7.640625,7.5625,2.936717987060547
07-08-1986,7.484375,7.59375,768800,7.625,7.5,2.912447690963745
08-08-1986,7.40625,7.546875,616800,7.546875,7.53125,2.9245827198028564
11-08-1986,7.53125,7.5625,1471200,7.859375,7.859375,3.0520036220550537
12-08-1986,7.78125,7.828125,952000,7.984375,7.921875,3.0762720108032227
13-08-1986,7.921875,7.921875,2211200,8.25,8.1875,3.1794233322143555
14-08-1986,8.203125,8.234375,1181600,8.28125,8.234375,3.1976242065429688
15-08-1986,8.15625,8.3125,1148000,8.3125,8.265625,3.2097606658935547
18-08-1986,8.125,8.25,1219200,8.25,8.21875,3.1915576457977295
19-08-1986,8.171875,8.1875,1656000,8.203125,8.171875,3.1733548641204834
20-08-1986,8.1875,8.203125,1321600,8.359375,8.359375,3.246166467666626
21-08-1986,8.34375,8.375,1935200,8.5,8.4375,3.2765042781829834
22-08-1986,8.34375,8.46875,779200,8.46875,8.375,3.252232313156128
25-08-1986,8.28125,8.34375,586400,8.359375,8.296875,3.221896171569824
26-08-1986,8.296875,8.296875,1156800,8.5,8.46875,3.2886385917663574
27-08-1986,8.4375,8.453125,981600,8.53125,8.53125,3.3129098415374756
28-08-1986,8.5,8.53125,1001600,8.671875,8.640625,3.3553812503814697
29-08-1986,8.59375,8.59375,3828000,8.796875,8.71875,3.38572096824646
02-09-1986,8.453125,8.71875,1000000,8.71875,8.46875,3.2886385917663574
03-09-1986,8.375,8.46875,1630400,8.625,8.625,3.3493170738220215
04-09-1986,8.640625,8.65625,2874400,9.0,8.890625,3.452465534210205
05-09-1986,8.625,8.875,1639200,8.921875,8.671875,3.3675177097320557
08-09-1986,8.515625,8.59375,1348000,8.78125,8.75,3.397857427597046
09-09-1986,8.625,8.78125,1900800,8.859375,8.65625,3.361449956893921
10-09-1986,8.5625,8.65625,1460000,8.8125,8.8125,3.422126293182373
11-09-1986,8.4375,8.8125,2055200,8.8125,8.46875,3.2886385917663574
12-09-1986,8.1875,8.484375,2328800,8.5,8.34375,3.2400999069213867
15-09-1986,8.390625,8.46875,1860800,8.484375,8.4375,3.2765042781829834
16-09-1986,8.375,8.4375,1300800,8.484375,8.453125,3.2825698852539062
17-09-1986,8.34375,8.453125,1265600,8.484375,8.34375,3.2400999069213867
18-09-1986,8.3125,8.34375,861600,8.40625,8.359375,3.246166467666626
19-09-1986,8.28125,8.359375,1069600,8.421875,8.421875,3.270437479019165
22-09-1986,8.34375,8.390625,415200,8.4375,8.421875,3.270437479019165
23-09-1986,8.421875,8.4375,1432800,8.546875,8.546875,3.3189775943756104
24-09-1986,8.390625,8.5,820800,8.5625,8.5625,3.325045347213745
25-09-1986,8.3125,8.5625,1181600,8.5625,8.375,3.252232313156128
26-09-1986,8.25,8.34375,456000,8.359375,8.3125,3.22796368598938
29-09-1986,7.9375,8.28125,1515200,8.28125,8.0,3.106611490249634
30-09-1986,7.96875,7.96875,930400,8.0625,8.015625,3.112678289413452
01-10-1986,8.015625,8.046875,1239200,8.1875,8.125,3.155151844024658
02-10-1986,8.109375,8.171875,648800,8.203125,8.109375,3.1490840911865234
03-10-1986,8.015625,8.078125,416000,8.1875,8.078125,3.1369502544403076
06-10-1986,8.03125,8.046875,403200,8.15625,8.0625,3.130882501602173
07-10-1986,8.046875,8.078125,541600,8.140625,8.078125,3.1369502544403076
08-10-1986,8.078125,8.109375,1105600,8.21875,8.1875,3.1794233322143555
09-10-1986,8.21875,8.21875,1460800,8.28125,8.21875,3.1915576457977295
